Simulation parameters:

Distribution: Poly Disperse - Log Normal 
Number of discrete sphere sizes: 101
Mean diameter of spheres: 8 um
Std. deviation: 0.25 um
Total Concentration (Spheres in a volume of 1mm^3): 1e+08

Wavelength Range: 390nm to 830nm in 2.5nm steps

Sphere and Medium Data:
Dia.(um)	Num. Den.(in a vol. of 1mm^3)	Ref. Index of sphere (real | imag)
2.86521	2038	1.333	0	1
3.03365	4794	1.333	0	1
3.20208	10260	1.333	0	1
3.37052	20227	1.333	0	1
3.53896	37102	1.333	0	1
3.70739	63857	1.333	0	1
3.87583	103874	1.333	0	1
4.04427	160679	1.333	0	1
4.2127	237611	1.333	0	1
4.38114	337453	1.333	0	1
4.54958	462092	1.333	0	1
4.71801	612244	1.333	0	1
4.88645	787277	1.333	0	1
5.05489	985164	1.333	0	1
5.22332	1.20256e+06	1.333	0	1
5.39176	1.43496e+06	1.333	0	1
5.5602	1.677e+06	1.333	0	1
5.72863	1.92274e+06	1.333	0	1
5.89707	2.16604e+06	1.333	0	1
6.06551	2.40085e+06	1.333	0	1
6.23395	2.6215e+06	1.333	0	1
6.40238	2.823e+06	1.333	0	1
6.57082	3.00116e+06	1.333	0	1
6.73926	3.15271e+06	1.333	0	1
6.90769	3.27539e+06	1.333	0	1
7.07613	3.3679e+06	1.333	0	1
7.24457	3.42989e+06	1.333	0	1
7.413	3.46182e+06	1.333	0	1
7.58144	3.46489e+06	1.333	0	1
7.74988	3.44092e+06	1.333	0	1
7.91831	3.39216e+06	1.333	0	1
8.08675	3.32121e+06	1.333	0	1
8.25519	3.23089e+06	1.333	0	1
8.42362	3.12411e+06	1.333	0	1
8.59206	3.00377e+06	1.333	0	1
8.7605	2.87273e+06	1.333	0	1
8.92893	2.73367e+06	1.333	0	1
9.09737	2.58911e+06	1.333	0	1
9.26581	2.44133e+06	1.333	0	1
9.43424	2.29239e+06	1.333	0	1
9.60268	2.14406e+06	1.333	0	1
9.77112	1.99789e+06	1.333	0	1
9.93955	1.85517e+06	1.333	0	1
10.108	1.71694e+06	1.333	0	1
10.2764	1.58406e+06	1.333	0	1
10.4449	1.45715e+06	1.333	0	1
10.6133	1.33666e+06	1.333	0	1
10.7817	1.22291e+06	1.333	0	1
10.9502	1.11605e+06	1.333	0	1
11.1186	1.01613e+06	1.333	0	1
11.287	923083	1.333	0	1
11.4555	836788	1.333	0	1
11.6239	757044	1.333	0	1
11.7924	683602	1.333	0	1
11.9608	616179	1.333	0	1
12.1292	554463	1.333	0	1
12.2977	498126	1.333	0	1
12.4661	446832	1.333	0	1
12.6345	400241	1.333	0	1
12.803	358020	1.333	0	1
12.9714	319837	1.333	0	1
13.1399	285377	1.333	0	1
13.3083	254335	1.333	0	1
13.4767	226420	1.333	0	1
13.6452	201360	1.333	0	1
13.8136	178897	1.333	0	1
13.982	158792	1.333	0	1
14.1505	140822	1.333	0	1
14.3189	124782	1.333	0	1
14.4873	110482	1.333	0	1
14.6558	97749	1.333	0	1
14.8242	86422	1.333	0	1
14.9927	76357	1.333	0	1
15.1611	67422	1.333	0	1
15.3295	59497	1.333	0	1
15.498	52475	1.333	0	1
15.6664	46258	1.333	0	1
15.8348	40757	1.333	0	1
16.0033	35893	1.333	0	1
16.1717	31597	1.333	0	1
16.3402	27803	1.333	0	1
16.5086	24456	1.333	0	1
16.677	21504	1.333	0	1
16.8455	18902	1.333	0	1
17.0139	16610	1.333	0	1
17.1823	14591	1.333	0	1
17.3508	12815	1.333	0	1
17.5192	11251	1.333	0	1
17.6876	9877	1.333	0	1
17.8561	8668	1.333	0	1
18.0245	7606	1.333	0	1
18.193	6673	1.333	0	1
18.3614	5854	1.333	0	1
18.5298	5134	1.333	0	1
18.6983	4502	1.333	0	1
18.8667	3948	1.333	0	1
19.0351	3461	1.333	0	1
19.2036	3034	1.333	0	1
19.372	2660	1.333	0	1
19.5404	2332	1.333	0	1
19.7089	2044	1.333	0	1


Output:


Scattering Coefficient (us), g and Reduced Scattering Coefficient (us'):
WL(nm)	us(mm^-1)	g	us'(mm^-1)
390	12038.4	0.857201	1719.08
392.5	12063.8	0.855696	1740.85
395	12071.9	0.855084	1749.41
397.5	12050.5	0.856631	1727.67
400	12049.9	0.856702	1726.72
402.5	12067.9	0.855561	1743.08
405	12064.1	0.855931	1738.07
407.5	12047.4	0.857102	1721.54
410	12059.2	0.856313	1732.75
412.5	12067.6	0.855872	1739.28
415	12076.3	0.855199	1748.66
417.5	12077.2	0.855249	1748.18
420	12075.8	0.855488	1745.1
422.5	12089.6	0.854879	1754.45
425	12067.3	0.856421	1732.62
427.5	12075.4	0.855525	1744.59
430	12103.3	0.854089	1766
432.5	12059.7	0.857186	1722.29
435	12054.7	0.857077	1722.9
437.5	12093.2	0.85441	1760.66
440	12125.8	0.852458	1789.07
442.5	12088.3	0.855258	1749.69
445	12107	0.853812	1769.89
447.5	12117	0.852846	1783.07
450	12107.7	0.854121	1766.25
452.5	12109.5	0.854082	1766.99
455	12132	0.852197	1793.13
457.5	12125.5	0.852778	1785.13
460	12120	0.853352	1777.38
462.5	12111.9	0.854029	1767.99
465	12153.1	0.851082	1809.82
467.5	12127.7	0.852987	1782.93
470	12126.9	0.853055	1781.98
472.5	12143.4	0.851924	1798.15
475	12143.8	0.85206	1796.56
477.5	12137.2	0.852392	1791.55
480	12141.3	0.852143	1795.18
482.5	12157.4	0.851466	1805.79
485	12182.4	0.850337	1823.26
487.5	12144.8	0.852288	1793.93
490	12122.8	0.853692	1773.67
492.5	12140.9	0.852562	1790.04
495	12152.1	0.851819	1800.71
497.5	12164.7	0.850892	1813.86
500	12169.5	0.850692	1817
502.5	12176	0.850611	1818.95
505	12173.8	0.850619	1818.53
507.5	12173.6	0.850341	1821.88
510	12168.9	0.85088	1814.63
512.5	12187.2	0.849965	1828.5
515	12180.8	0.849992	1827.22
517.5	12188.4	0.849782	1830.91
520	12179.8	0.850287	1823.47
522.5	12199.5	0.849177	1839.96
525	12186.7	0.850041	1827.5
527.5	12190	0.849912	1829.58
530	12198.3	0.84943	1836.7
532.5	12199.8	0.849371	1837.65
535	12221.4	0.847906	1858.81
537.5	12199.3	0.849515	1835.81
540	12215	0.848605	1849.29
542.5	12218.7	0.848171	1855.15
545	12202.2	0.849445	1837.11
547.5	12244.2	0.84663	1877.9
550	12219.4	0.848312	1853.54
552.5	12229.5	0.847767	1861.73
555	12233.8	0.847422	1866.6
557.5	12220.8	0.848497	1851.48
560	12246.3	0.846659	1877.86
562.5	12229.9	0.847881	1860.4
565	12230.8	0.84786	1860.79
567.5	12239.2	0.847389	1867.84
570	12233.9	0.847994	1859.63
572.5	12248.3	0.846964	1874.43
575	12243.8	0.846844	1875.21
577.5	12246.7	0.846467	1880.27
580	12252	0.846967	1874.96
582.5	12255	0.847343	1870.81
585	12254.6	0.846494	1881.15
587.5	12264.8	0.845287	1897.53
590	12257.2	0.846489	1881.61
592.5	12279.1	0.845541	1896.62
595	12262.9	0.846543	1881.82
597.5	12267.4	0.845829	1891.29
600	12287.2	0.844249	1913.75
602.5	12264	0.84614	1886.94
605	12266.1	0.846757	1879.69
607.5	12285.1	0.845923	1892.85
610	12301.1	0.844186	1916.68
612.5	12300.9	0.843004	1931.19
615	12283.1	0.843737	1919.39
617.5	12271.9	0.845424	1896.94
620	12279.7	0.846702	1882.45
622.5	12300.2	0.847181	1879.7
625	12331.1	0.845129	1909.72
627.5	12375.8	0.837844	2006.81
630	12305.1	0.836326	2014.03
632.5	12180.4	0.847419	1858.5
635	12201.2	0.858495	1726.53
637.5	12431	0.847207	1899.37
640	12500.8	0.829277	2134.16
642.5	12306.1	0.835515	2024.17
645	12153.6	0.850233	1820.21
647.5	12246.7	0.851082	1823.75
650	12411.1	0.841939	1961.72
652.5	12326.3	0.843169	1933.14
655	12481	0.833165	2082.27
657.5	12309.2	0.843411	1927.48
660	12360	0.840128	1976.03
662.5	12302.1	0.844339	1914.96
665	12315.6	0.843818	1923.47
667.5	12359.5	0.84172	1956.26
670	12357.7	0.841798	1955.01
672.5	12331	0.843262	1932.74
675	12356.2	0.841298	1960.95
677.5	12359.1	0.841127	1963.52
680	12352.1	0.841765	1954.53
682.5	12370.1	0.840704	1970.52
685	12358.3	0.841601	1957.54
687.5	12358.6	0.841606	1957.53
690	12364	0.841263	1962.63
692.5	12372.5	0.840728	1970.59
695	12375.8	0.840545	1973.39
697.5	12370.7	0.840947	1967.6
700	12371.8	0.840924	1968.05
702.5	12377.9	0.840548	1973.68
705	12376.2	0.840741	1971.03
707.5	12376	0.840808	1970.17
710	12381.7	0.840475	1975.19
712.5	12403.6	0.839058	1996.27
715	12383.9	0.840411	1976.33
717.5	12383.7	0.8405	1975.2
720	12391.6	0.840019	1982.41
722.5	12407.9	0.838982	1997.9
725	12389.3	0.84031	1978.45
727.5	12405.1	0.839284	1993.7
730	12418.7	0.838399	2006.86
732.5	12409.7	0.839089	1996.86
735	12421.8	0.838285	2008.79
737.5	12403.5	0.839559	1990.03
740	12415.2	0.838916	1999.88
742.5	12419.9	0.83856	2005.06
745	12431.4	0.837922	2014.85
747.5	12431.1	0.837943	2014.56
750	12438	0.837559	2020.45
752.5	12414	0.8392	1996.17
755	12413.7	0.839276	1995.17
757.5	12413.1	0.839327	1994.45
760	12437.9	0.837773	2017.76
762.5	12431.1	0.83831	2009.99
765	12426.1	0.838639	2005.09
767.5	12471.2	0.835622	2050
770	12448.5	0.837256	2025.92
772.5	12454.1	0.83689	2031.39
775	12452.9	0.837014	2029.66
777.5	12445.5	0.837598	2021.18
780	12459.4	0.83668	2034.87
782.5	12447.8	0.83762	2021.28
785	12454.6	0.837149	2028.23
787.5	12467.6	0.836395	2039.77
790	12445.5	0.838003	2016.14
792.5	12452.8	0.837418	2024.61
795	12514.3	0.833489	2083.77
797.5	12451.6	0.837725	2020.59
800	12459.7	0.837139	2029.19
802.5	12479.3	0.835972	2046.96
805	12488.9	0.835287	2057.09
807.5	12470.5	0.836667	2036.84
810	12500.8	0.834778	2065.41
812.5	12470.9	0.836874	2034.33
815	12487.8	0.835742	2051.22
817.5	12458	0.837601	2023.17
820	12504	0.834758	2066.2
822.5	12473.4	0.836687	2037.07
825	12502	0.834992	2062.93
827.5	12478.8	0.836496	2040.33
830	12488.2	0.836039	2047.58

Scattering (Csca), Extinction (Cext) and Backscattering (Cback) Cross Sections:
WL(nm)	Csca(um^2)	Cext(um^2)	Cback(um^2)
390	120.384	120.384	71.6519
392.5	120.638	120.638	79.8339
395	120.719	120.719	94.7513
397.5	120.505	120.505	78.7008
400	120.499	120.499	63.928
402.5	120.679	120.679	84.6473
405	120.641	120.641	82.5652
407.5	120.474	120.474	69.1704
410	120.592	120.592	74.9198
412.5	120.676	120.676	78.5876
415	120.763	120.763	71.6505
417.5	120.772	120.772	76.907
420	120.758	120.758	72.9292
422.5	120.896	120.896	84.8668
425	120.673	120.673	68.834
427.5	120.754	120.754	73.5303
430	121.033	121.033	85.0043
432.5	120.597	120.597	84.6434
435	120.547	120.547	82.6157
437.5	120.932	120.932	75.4095
440	121.258	121.258	123.018
442.5	120.883	120.883	69.4922
445	121.07	121.07	74.8244
447.5	121.17	121.17	82.6554
450	121.077	121.077	76.2293
452.5	121.095	121.095	74.0857
455	121.32	121.32	87.3092
457.5	121.255	121.255	78.6421
460	121.2	121.2	75.9065
462.5	121.119	121.119	75.8882
465	121.531	121.531	79.2376
467.5	121.277	121.277	73.8275
470	121.269	121.269	78.0702
472.5	121.434	121.434	80.359
475	121.438	121.438	81.7168
477.5	121.372	121.372	79.6657
480	121.413	121.413	83.5292
482.5	121.574	121.574	77.3836
485	121.824	121.824	75.2378
487.5	121.448	121.448	79.2269
490	121.228	121.228	59.7788
492.5	121.409	121.409	61.4356
495	121.521	121.521	74.4038
497.5	121.647	121.647	77.7669
500	121.695	121.695	69.9038
502.5	121.76	121.76	75.4279
505	121.738	121.738	73.1449
507.5	121.736	121.736	80.6345
510	121.689	121.689	76.6002
512.5	121.872	121.872	80.7873
515	121.808	121.808	76.2377
517.5	121.884	121.884	82.2332
520	121.798	121.798	67.4466
522.5	121.995	121.995	80.9592
525	121.867	121.867	72.4295
527.5	121.9	121.9	76.4628
530	121.983	121.983	80.8954
532.5	121.998	121.998	72.6417
535	122.214	122.214	82.3862
537.5	121.993	121.993	77.9787
540	122.15	122.15	79.3032
542.5	122.187	122.187	82.5817
545	122.022	122.022	75.8714
547.5	122.442	122.442	96.0686
550	122.194	122.194	75.5691
552.5	122.295	122.295	86.4397
555	122.338	122.338	79.6546
557.5	122.208	122.208	70.7174
560	122.463	122.463	89.7112
562.5	122.299	122.299	74.9145
565	122.308	122.308	79.7729
567.5	122.392	122.392	74.891
570	122.339	122.339	75.823
572.5	122.483	122.483	82.1921
575	122.438	122.438	68.5918
577.5	122.467	122.467	83.7097
580	122.52	122.52	72.8209
582.5	122.55	122.55	79.5557
585	122.546	122.546	77.2631
587.5	122.648	122.648	89.4815
590	122.572	122.572	77.3928
592.5	122.791	122.791	87.1013
595	122.629	122.629	77.9667
597.5	122.674	122.674	77.3733
600	122.872	122.872	81.3689
602.5	122.64	122.64	78.5709
605	122.661	122.661	77.6207
607.5	122.851	122.851	77.6408
610	123.011	123.011	81.5378
612.5	123.009	123.009	90.8074
615	122.831	122.831	88.696
617.5	122.719	122.719	75.3787
620	122.797	122.797	68.7139
622.5	123.002	123.002	74.186
625	123.311	123.311	72.5226
627.5	123.758	123.758	105.519
630	123.051	123.051	99.5593
632.5	121.804	121.804	75.8921
635	122.012	122.012	36.1558
637.5	124.31	124.31	55.7986
640	125.008	125.008	145.384
642.5	123.061	123.061	109.346
645	121.536	121.536	42.2587
647.5	122.467	122.467	51.8219
650	124.111	124.111	60.8471
652.5	123.263	123.263	98.9158
655	124.81	124.81	201.959
657.5	123.092	123.092	58.8019
660	123.6	123.6	46.3371
662.5	123.021	123.021	50.447
665	123.156	123.156	116.092
667.5	123.595	123.595	119.181
670	123.577	123.577	59.8223
672.5	123.31	123.31	49.0198
675	123.562	123.562	74.8372
677.5	123.591	123.591	86.723
680	123.521	123.521	96.0961
682.5	123.701	123.701	97.4363
685	123.583	123.583	70.3107
687.5	123.586	123.586	68.8796
690	123.64	123.64	81.2671
692.5	123.725	123.725	89.9414
695	123.758	123.758	90.2187
697.5	123.707	123.707	68.9732
700	123.718	123.718	61.8477
702.5	123.779	123.779	81.004
705	123.762	123.762	92.7836
707.5	123.76	123.76	82.6248
710	123.817	123.817	73.1392
712.5	124.036	124.036	86.6062
715	123.839	123.839	74.1452
717.5	123.837	123.837	73.8824
720	123.916	123.916	78.7165
722.5	124.079	124.079	83.6978
725	123.893	123.893	80.249
727.5	124.051	124.051	83.5576
730	124.187	124.187	88.3186
732.5	124.097	124.097	75.67
735	124.218	124.218	76.8748
737.5	124.035	124.035	71.8281
740	124.152	124.152	76.6598
742.5	124.199	124.199	79.9212
745	124.314	124.314	84.7362
747.5	124.311	124.311	85.6749
750	124.38	124.38	94.4183
752.5	124.14	124.14	74.6627
755	124.137	124.137	70.8406
757.5	124.131	124.131	70.6661
760	124.379	124.379	70.6468
762.5	124.311	124.311	77.2328
765	124.261	124.261	72.9775
767.5	124.712	124.712	89.9816
770	124.485	124.485	77.8496
772.5	124.541	124.541	72.1977
775	124.529	124.529	71.0453
777.5	124.455	124.455	77.7144
780	124.594	124.594	81.6062
782.5	124.478	124.478	72.0351
785	124.546	124.546	79.8406
787.5	124.676	124.676	75.7175
790	124.455	124.455	72.3274
792.5	124.528	124.528	71.6913
795	125.143	125.143	89.9798
797.5	124.516	124.516	68.8412
800	124.597	124.597	72.5409
802.5	124.793	124.793	79.3611
805	124.889	124.889	80.3611
807.5	124.705	124.705	73.608
810	125.008	125.008	78.1456
812.5	124.709	124.709	74.5972
815	124.878	124.878	70.8812
817.5	124.58	124.58	67.1568
820	125.04	125.04	75.2305
822.5	124.734	124.734	69.6101
825	125.02	125.02	79.5019
827.5	124.788	124.788	64.9462
830	124.882	124.882	71.6132

Forward and Backward Scattering percentages:
WL(nm)	Forward %	Backward %
390	96.1547	3.84531
392.5	96.0855	3.91447
395	96.0812	3.91882
397.5	96.1253	3.87475
400	96.1334	3.86656
402.5	96.0783	3.92168
405	96.1025	3.89746
407.5	96.152	3.848
410	96.1134	3.88663
412.5	96.0916	3.90844
415	96.08	3.91998
417.5	96.0757	3.92429
420	96.0833	3.91669
422.5	96.0715	3.92855
425	96.1443	3.85569
427.5	96.0908	3.90916
430	96.0461	3.95386
432.5	96.1905	3.80953
435	96.1307	3.86928
437.5	96.0752	3.92475
440	95.9755	4.02447
442.5	96.0751	3.92486
445	96.0292	3.97077
447.5	95.9844	4.0156
450	96.0473	3.95266
452.5	96.0349	3.96512
455	95.9738	4.02621
457.5	96.0085	3.99154
460	96.0169	3.98306
462.5	96.0434	3.95662
465	95.9309	4.06912
467.5	96.0076	3.99241
470	95.9998	4.00021
472.5	95.9611	4.03887
475	95.9564	4.04355
477.5	95.9778	4.02222
480	95.9917	4.00832
482.5	95.9838	4.01621
485	95.8822	4.11776
487.5	95.9698	4.0302
490	96.0484	3.9516
492.5	95.9801	4.01988
495	95.9732	4.02684
497.5	95.931	4.069
500	95.9149	4.08514
502.5	95.9311	4.06888
505	95.922	4.078
507.5	95.9167	4.08334
510	95.9322	4.06781
512.5	95.8882	4.11184
515	95.9002	4.09978
517.5	95.8874	4.11262
520	95.9261	4.07392
522.5	95.8667	4.13329
525	95.9131	4.08685
527.5	95.9093	4.09071
530	95.8777	4.12228
532.5	95.8836	4.11638
535	95.8396	4.16039
537.5	95.8868	4.11323
540	95.8576	4.14239
542.5	95.8341	4.16592
545	95.8712	4.12884
547.5	95.7453	4.25475
550	95.8582	4.14178
552.5	95.821	4.17904
555	95.8208	4.17922
557.5	95.8638	4.13619
560	95.7909	4.20905
562.5	95.8396	4.16039
565	95.8297	4.17033
567.5	95.814	4.18604
570	95.8417	4.1583
572.5	95.8259	4.17407
575	95.8234	4.17664
577.5	95.7736	4.22642
580	95.7728	4.22723
582.5	95.838	4.162
585	95.7962	4.20385
587.5	95.699	4.30098
590	95.7953	4.20474
592.5	95.7336	4.26639
595	95.7947	4.2053
597.5	95.7595	4.24053
600	95.7099	4.29014
602.5	95.7728	4.22722
605	95.7964	4.20362
607.5	95.7664	4.23363
610	95.7035	4.29652
612.5	95.6746	4.32537
615	95.689	4.31097
617.5	95.7424	4.25761
620	95.7296	4.27036
622.5	95.7775	4.22251
625	95.8222	4.1778
627.5	95.5778	4.42224
630	95.3431	4.65691
632.5	95.6947	4.3053
635	96.3186	3.6814
637.5	95.8677	4.13233
640	95.0069	4.99308
642.5	95.5441	4.45591
645	96.0243	3.97569
647.5	95.8997	4.10026
650	95.5146	4.48542
652.5	95.6976	4.3024
655	95.1378	4.8622
657.5	95.7134	4.28657
660	95.6675	4.33247
662.5	95.7009	4.2991
665	95.6472	4.35279
667.5	95.5935	4.40652
670	95.6348	4.36525
672.5	95.676	4.32396
675	95.5877	4.41232
677.5	95.6052	4.3948
680	95.6168	4.38325
682.5	95.5819	4.41808
685	95.613	4.38699
687.5	95.6047	4.39531
690	95.5845	4.4155
692.5	95.5964	4.40356
695	95.6106	4.38938
697.5	95.5876	4.4124
700	95.5608	4.43923
702.5	95.563	4.43696
705	95.5936	4.40641
707.5	95.5868	4.41317
710	95.5831	4.41694
712.5	95.5079	4.4921
715	95.5744	4.42564
717.5	95.5842	4.41575
720	95.5691	4.43088
722.5	95.5332	4.46684
725	95.5715	4.42854
727.5	95.5254	4.47458
730	95.4953	4.50473
732.5	95.5281	4.47187
735	95.5132	4.48684
737.5	95.5512	4.44884
740	95.5367	4.46328
742.5	95.5137	4.4863
745	95.4824	4.51763
747.5	95.4951	4.50495
750	95.4528	4.54719
752.5	95.5239	4.47612
755	95.5288	4.47118
757.5	95.5269	4.4731
760	95.4721	4.52789
762.5	95.4711	4.52893
765	95.5109	4.48908
767.5	95.3723	4.62772
770	95.4598	4.5402
772.5	95.4466	4.55342
775	95.4531	4.54693
777.5	95.4712	4.52879
780	95.4569	4.54306
782.5	95.4815	4.51848
785	95.4528	4.5472
787.5	95.4511	4.54888
790	95.4787	4.52133
792.5	95.4568	4.54323
795	95.344	4.65596
797.5	95.48	4.51996
800	95.4614	4.53857
802.5	95.4232	4.57679
805	95.3875	4.61245
807.5	95.4271	4.57289
810	95.3685	4.63152
812.5	95.4547	4.54532
815	95.4447	4.5553
817.5	95.491	4.50896
820	95.3937	4.60634
822.5	95.449	4.55097
825	95.3774	4.6226
827.5	95.4354	4.56459
830	95.4173	4.58274

