Simulation parameters:

Distribution: Poly Disperse - Log Normal 
Number of discrete sphere sizes: 101
Mean diameter of spheres: 10.5 um
Std. deviation: 0.25 um
Total Concentration (Spheres in a volume of 1mm^3): 1e+08

Wavelength Range: 390nm to 830nm in 2.5nm steps

Sphere and Medium Data:
Dia.(um)	Num. Den.(in a vol. of 1mm^3)	Ref. Index of sphere (real | imag)
3.76059	2038	1.333	0	1
3.98166	4794	1.333	0	1
4.20273	10260	1.333	0	1
4.42381	20227	1.333	0	1
4.64488	37102	1.333	0	1
4.86595	63857	1.333	0	1
5.08703	103874	1.333	0	1
5.3081	160679	1.333	0	1
5.52917	237611	1.333	0	1
5.75025	337453	1.333	0	1
5.97132	462092	1.333	0	1
6.19239	612244	1.333	0	1
6.41347	787277	1.333	0	1
6.63454	985164	1.333	0	1
6.85561	1.20256e+06	1.333	0	1
7.07669	1.43496e+06	1.333	0	1
7.29776	1.677e+06	1.333	0	1
7.51883	1.92274e+06	1.333	0	1
7.73991	2.16604e+06	1.333	0	1
7.96098	2.40085e+06	1.333	0	1
8.18205	2.6215e+06	1.333	0	1
8.40313	2.823e+06	1.333	0	1
8.6242	3.00116e+06	1.333	0	1
8.84527	3.15271e+06	1.333	0	1
9.06635	3.27539e+06	1.333	0	1
9.28742	3.3679e+06	1.333	0	1
9.50849	3.42989e+06	1.333	0	1
9.72957	3.46182e+06	1.333	0	1
9.95064	3.46489e+06	1.333	0	1
10.1717	3.44092e+06	1.333	0	1
10.3928	3.39216e+06	1.333	0	1
10.6139	3.32121e+06	1.333	0	1
10.8349	3.23089e+06	1.333	0	1
11.056	3.12411e+06	1.333	0	1
11.2771	3.00377e+06	1.333	0	1
11.4982	2.87273e+06	1.333	0	1
11.7192	2.73367e+06	1.333	0	1
11.9403	2.58911e+06	1.333	0	1
12.1614	2.44133e+06	1.333	0	1
12.3824	2.29239e+06	1.333	0	1
12.6035	2.14406e+06	1.333	0	1
12.8246	1.99789e+06	1.333	0	1
13.0457	1.85517e+06	1.333	0	1
13.2667	1.71694e+06	1.333	0	1
13.4878	1.58406e+06	1.333	0	1
13.7089	1.45715e+06	1.333	0	1
13.93	1.33666e+06	1.333	0	1
14.151	1.22291e+06	1.333	0	1
14.3721	1.11605e+06	1.333	0	1
14.5932	1.01613e+06	1.333	0	1
14.8143	923083	1.333	0	1
15.0353	836788	1.333	0	1
15.2564	757044	1.333	0	1
15.4775	683602	1.333	0	1
15.6985	616179	1.333	0	1
15.9196	554463	1.333	0	1
16.1407	498126	1.333	0	1
16.3618	446832	1.333	0	1
16.5828	400241	1.333	0	1
16.8039	358020	1.333	0	1
17.025	319837	1.333	0	1
17.2461	285377	1.333	0	1
17.4671	254335	1.333	0	1
17.6882	226420	1.333	0	1
17.9093	201360	1.333	0	1
18.1303	178897	1.333	0	1
18.3514	158792	1.333	0	1
18.5725	140822	1.333	0	1
18.7936	124782	1.333	0	1
19.0146	110482	1.333	0	1
19.2357	97749	1.333	0	1
19.4568	86422	1.333	0	1
19.6779	76357	1.333	0	1
19.8989	67422	1.333	0	1
20.12	59497	1.333	0	1
20.3411	52475	1.333	0	1
20.5622	46258	1.333	0	1
20.7832	40757	1.333	0	1
21.0043	35893	1.333	0	1
21.2254	31597	1.333	0	1
21.4464	27803	1.333	0	1
21.6675	24456	1.333	0	1
21.8886	21504	1.333	0	1
22.1097	18902	1.333	0	1
22.3307	16610	1.333	0	1
22.5518	14591	1.333	0	1
22.7729	12815	1.333	0	1
22.994	11251	1.333	0	1
23.215	9877	1.333	0	1
23.4361	8668	1.333	0	1
23.6572	7606	1.333	0	1
23.8783	6673	1.333	0	1
24.0993	5854	1.333	0	1
24.3204	5134	1.333	0	1
24.5415	4502	1.333	0	1
24.7625	3948	1.333	0	1
24.9836	3461	1.333	0	1
25.2047	3034	1.333	0	1
25.4258	2660	1.333	0	1
25.6468	2332	1.333	0	1
25.8679	2044	1.333	0	1


Output:


Scattering Coefficient (us), g and Reduced Scattering Coefficient (us'):
WL(nm)	us(mm^-1)	g	us'(mm^-1)
390	20560.8	0.862108	2835.17
392.5	20570.6	0.861729	2844.31
395	20568	0.861926	2839.9
397.5	20570	0.861859	2841.56
400	20578.1	0.861678	2846.41
402.5	20575	0.861697	2845.57
405	20586.9	0.861428	2852.77
407.5	20586.3	0.861083	2859.78
410	20603.1	0.861403	2855.52
412.5	20575	0.862543	2828.18
415	20673.7	0.855365	2990.14
417.5	20507	0.871495	2635.25
420	20595.4	0.856223	2961.15
422.5	20612.3	0.862098	2842.47
425	20605.2	0.860163	2881.38
427.5	20578.7	0.861809	2843.78
430	20616.8	0.86053	2875.42
432.5	20624	0.860434	2878.42
435	20626	0.860223	2883.04
437.5	20645.7	0.859745	2895.65
440	20643.5	0.859688	2896.52
442.5	20651.3	0.859499	2901.52
445	20654.3	0.859386	2904.28
447.5	20660.3	0.859238	2908.18
450	20646.8	0.859819	2894.29
452.5	20658.9	0.859406	2904.51
455	20672.9	0.858832	2918.34
457.5	20665.8	0.859206	2909.62
460	20671.2	0.85903	2914.01
462.5	20665	0.859236	2908.9
465	20727	0.8569	2966.04
467.5	20687.1	0.858564	2925.9
470	20680	0.858852	2918.93
472.5	20689.1	0.858559	2926.28
475	20712.9	0.857579	2949.95
477.5	20698.7	0.858291	2933.2
480	20696	0.85843	2929.92
482.5	20726.4	0.857306	2957.52
485	20701.6	0.858323	2932.93
487.5	20698	0.858357	2931.73
490	20744.6	0.856627	2974.21
492.5	20706	0.858256	2934.96
495	20737.2	0.857	2965.41
497.5	20726.2	0.857496	2953.58
500	20723.7	0.85767	2949.6
502.5	20738.4	0.857242	2960.57
505	20750.9	0.856682	2973.98
507.5	20791.3	0.855136	3011.92
510	20742.5	0.856625	2973.95
512.5	20752.4	0.856698	2973.87
515	20752.5	0.856857	2970.58
517.5	20771.3	0.856107	2988.84
520	20767.4	0.856258	2985.15
522.5	20756.7	0.856756	2973.28
525	20757.8	0.856702	2974.55
527.5	20765.2	0.856485	2980.12
530	20767.8	0.856512	2979.92
532.5	20782.8	0.855858	2995.67
535	20753.5	0.857169	2964.24
537.5	20800.8	0.855243	3011.05
540	20785.6	0.855918	2994.84
542.5	20789.6	0.855818	2997.48
545	20798.9	0.855431	3006.87
547.5	20789.8	0.855818	2997.51
550	20807.4	0.855273	3011.4
552.5	20803.3	0.855263	3011
555	20810.9	0.855709	3002.82
557.5	20784.4	0.856069	2991.53
560	20829.3	0.854042	3040.2
562.5	20822.1	0.855238	3014.25
565	20893.5	0.851891	3094.53
567.5	20749.6	0.857984	2946.79
570	20821.2	0.854319	3033.24
572.5	20853.4	0.854008	3044.43
575	20836	0.854382	3034.11
577.5	20888.6	0.852458	3081.94
580	20835.1	0.854759	3026.11
582.5	20862.3	0.853752	3051.08
585	20864.8	0.853303	3060.8
587.5	20859.3	0.853401	3057.96
590	20860.9	0.8539	3047.77
592.5	20869.7	0.853814	3050.86
595	20871.7	0.853451	3058.73
597.5	20875.9	0.853105	3066.55
600	20881.1	0.853012	3069.28
602.5	20876.7	0.853359	3061.39
605	20872.8	0.853636	3055.02
607.5	20909.3	0.852256	3089.23
610	20916.2	0.851899	3097.72
612.5	20883	0.853155	3066.56
615	20881	0.853364	3061.9
617.5	20913.3	0.852127	3092.51
620	20928.9	0.851593	3105.99
622.5	20924.8	0.85178	3101.48
625	20910.3	0.852403	3086.3
627.5	20905.2	0.852703	3079.28
630	20915.3	0.852143	3092.48
632.5	20909.6	0.852582	3082.46
635	20869.5	0.85357	3055.91
637.5	20978.8	0.849227	3163.03
640	20924.9	0.852165	3093.42
642.5	20906.7	0.85269	3079.76
645	20990.9	0.849476	3159.63
647.5	20944.8	0.85148	3110.72
650	20962	0.850688	3129.86
652.5	20949.6	0.851143	3118.5
655	20965.6	0.850495	3134.45
657.5	20971.6	0.850521	3134.82
660	20978.4	0.850484	3136.6
662.5	20975	0.850467	3136.45
665	20951.5	0.851219	3117.17
667.5	20974.6	0.850302	3139.86
670	21000.5	0.849647	3157.5
672.5	20970.9	0.850892	3126.92
675	20996.7	0.849995	3149.6
677.5	21023.4	0.848858	3177.52
680	21019.3	0.848913	3175.75
682.5	20981.6	0.850287	3141.22
685	21029.6	0.848524	3185.49
687.5	21009.9	0.849533	3161.3
690	20986.2	0.850468	3138.12
692.5	20999.5	0.849917	3151.66
695	20998.3	0.849988	3150
697.5	21034.8	0.848539	3185.94
700	21013.8	0.84946	3163.42
702.5	21042.3	0.848365	3190.74
705	21024.9	0.849036	3174
707.5	21013.5	0.849456	3163.46
710	21017.1	0.849414	3164.88
712.5	21052.7	0.847978	3200.47
715	21007.6	0.849873	3153.81
717.5	21021.1	0.849402	3165.74
720	21031.9	0.849047	3174.83
722.5	21043.6	0.848653	3184.89
725	21049.7	0.84846	3189.87
727.5	21054.4	0.848382	3192.22
730	21065.6	0.84794	3203.23
732.5	21087	0.84706	3225.05
735	21096.1	0.846659	3234.9
737.5	21077.8	0.847474	3214.9
740	21061	0.848177	3197.54
742.5	21089.5	0.847017	3226.33
745	21100.4	0.846712	3234.44
747.5	21081.2	0.847613	3212.5
750	21071.6	0.84817	3199.3
752.5	21113.3	0.846286	3245.42
755	21081.2	0.847282	3219.48
757.5	21117.1	0.845731	3257.72
760	21101.5	0.846764	3233.51
762.5	21127.2	0.846529	3242.41
765	21107.9	0.847433	3220.37
767.5	21113.4	0.846496	3240.99
770	21118.8	0.845641	3259.87
772.5	21144.9	0.84477	3282.33
775	21143.2	0.84551	3266.4
777.5	21139.7	0.84609	3253.61
780	21151.3	0.845595	3265.87
782.5	21137.6	0.845852	3258.32
785	21147.7	0.845139	3274.95
787.5	21166.7	0.844249	3296.73
790	21133.9	0.845739	3260.12
792.5	21148.2	0.845615	3264.96
795	21162.6	0.845707	3265.24
797.5	21161.4	0.845968	3259.53
800	21173	0.8451	3279.71
802.5	21191.4	0.843424	3318.07
805	21166.4	0.843595	3310.54
807.5	21171.3	0.843284	3317.88
810	21139.4	0.845241	3271.5
812.5	21158.9	0.845758	3263.6
815	21156.7	0.847333	3229.92
817.5	21175.9	0.847902	3220.81
820	21235.5	0.845564	3279.53
822.5	21307.3	0.840155	3405.87
825	21289.5	0.836247	3486.21
827.5	21153.4	0.837329	3441.03
830	20971.3	0.84739	3200.42

Scattering (Csca), Extinction (Cext) and Backscattering (Cback) Cross Sections:
WL(nm)	Csca(um^2)	Cext(um^2)	Cback(um^2)
390	205.608	205.608	134.918
392.5	205.706	205.706	138.19
395	205.68	205.68	136.793
397.5	205.7	205.7	131.508
400	205.781	205.781	128.508
402.5	205.75	205.75	143.492
405	205.869	205.869	138.227
407.5	205.863	205.863	145.486
410	206.031	206.031	125.443
412.5	205.75	205.75	139.909
415	206.737	206.737	137.865
417.5	205.07	205.07	63.6655
420	205.954	205.954	206.854
422.5	206.123	206.123	126.563
425	206.052	206.052	140.851
427.5	205.787	205.787	131.132
430	206.168	206.168	127.891
432.5	206.24	206.24	183.707
435	206.26	206.26	135.62
437.5	206.457	206.457	100.066
440	206.435	206.435	143.021
442.5	206.513	206.513	129.582
445	206.543	206.543	152.46
447.5	206.603	206.603	130.877
450	206.468	206.468	140.055
452.5	206.589	206.589	138.4
455	206.729	206.729	144.732
457.5	206.658	206.658	148.639
460	206.712	206.712	119.222
462.5	206.65	206.65	133.816
465	207.27	207.27	179.053
467.5	206.871	206.871	129.387
470	206.8	206.8	129.526
472.5	206.891	206.891	137.405
475	207.129	207.129	151.693
477.5	206.987	206.987	128.246
480	206.96	206.96	126.112
482.5	207.264	207.264	142.046
485	207.016	207.016	127.822
487.5	206.98	206.98	123.156
490	207.446	207.446	160.622
492.5	207.06	207.06	136.953
495	207.372	207.372	137.664
497.5	207.262	207.262	135.304
500	207.237	207.237	129.554
502.5	207.384	207.384	119.462
505	207.509	207.509	155.702
507.5	207.913	207.913	153.782
510	207.425	207.425	131.511
512.5	207.524	207.524	133.294
515	207.525	207.525	112.499
517.5	207.713	207.713	141.586
520	207.674	207.674	129.25
522.5	207.567	207.567	122.226
525	207.578	207.578	110.126
527.5	207.652	207.652	130.449
530	207.678	207.678	130.63
532.5	207.828	207.828	134.771
535	207.535	207.535	124.594
537.5	208.008	208.008	148.292
540	207.856	207.856	128.127
542.5	207.896	207.896	132.085
545	207.989	207.989	142.481
547.5	207.898	207.898	127.839
550	208.074	208.074	124.594
552.5	208.033	208.033	129.152
555	208.109	208.109	123.594
557.5	207.844	207.844	119.917
560	208.293	208.293	155.384
562.5	208.221	208.221	123.22
565	208.935	208.935	176.84
567.5	207.496	207.496	126.689
570	208.212	208.212	138.937
572.5	208.534	208.534	113.83
575	208.36	208.36	141.963
577.5	208.886	208.886	211.917
580	208.351	208.351	136.503
582.5	208.623	208.623	129.148
585	208.648	208.648	154.75
587.5	208.593	208.593	136.657
590	208.609	208.609	131.118
592.5	208.697	208.697	141.171
595	208.717	208.717	130.655
597.5	208.759	208.759	128.19
600	208.811	208.811	147.559
602.5	208.767	208.767	140.785
605	208.728	208.728	127.803
607.5	209.093	209.093	143.94
610	209.162	209.162	148.487
612.5	208.83	208.83	125.01
615	208.81	208.81	119.514
617.5	209.133	209.133	134.815
620	209.289	209.289	140.297
622.5	209.248	209.248	130.704
625	209.103	209.103	132.158
627.5	209.052	209.052	145.303
630	209.153	209.153	143.892
632.5	209.096	209.096	123.987
635	208.695	208.695	103.765
637.5	209.788	209.788	150.708
640	209.249	209.249	150.028
642.5	209.067	209.067	128.644
645	209.909	209.909	159.51
647.5	209.448	209.448	124.441
650	209.62	209.62	117.818
652.5	209.496	209.496	141.94
655	209.656	209.656	151.98
657.5	209.716	209.716	154.494
660	209.783	209.783	129.524
662.5	209.75	209.75	137.458
665	209.515	209.515	132.899
667.5	209.746	209.746	141.673
670	210.005	210.005	153.643
672.5	209.709	209.709	129.564
675	209.967	209.967	139.101
677.5	210.234	210.234	152.476
680	210.193	210.193	158.348
682.5	209.816	209.816	116.187
685	210.296	210.296	148.818
687.5	210.099	210.099	148.292
690	209.862	209.862	133.686
692.5	209.995	209.995	131.447
695	209.983	209.983	129.145
697.5	210.348	210.348	156.219
700	210.138	210.138	136.823
702.5	210.423	210.423	152.992
705	210.249	210.249	131.15
707.5	210.135	210.135	129.428
710	210.171	210.171	131.471
712.5	210.527	210.527	142.384
715	210.076	210.076	120.317
717.5	210.211	210.211	123.952
720	210.319	210.319	123.627
722.5	210.436	210.436	131.471
725	210.496	210.496	140.042
727.5	210.544	210.544	132.241
730	210.656	210.656	140.054
732.5	210.87	210.87	145.372
735	210.961	210.961	154.542
737.5	210.778	210.778	120.438
740	210.61	210.61	139.854
742.5	210.895	210.895	145.909
745	211.004	211.004	122.684
747.5	210.812	210.812	139.821
750	210.716	210.716	137.841
752.5	211.133	211.133	146.66
755	210.812	210.812	118.751
757.5	211.171	211.171	152.779
760	211.015	211.015	139.767
762.5	211.272	211.272	155.815
765	211.079	211.079	139.161
767.5	211.134	211.134	136.593
770	211.188	211.188	146.982
772.5	211.449	211.449	151.591
775	211.432	211.432	146.721
777.5	211.397	211.397	143.337
780	211.513	211.513	154.087
782.5	211.376	211.376	135.646
785	211.477	211.477	148.215
787.5	211.667	211.667	140.171
790	211.339	211.339	139.673
792.5	211.482	211.482	145.431
795	211.626	211.626	135.767
797.5	211.614	211.614	134.855
800	211.73	211.73	123.299
802.5	211.914	211.914	138.104
805	211.664	211.664	153.419
807.5	211.713	211.713	166.108
810	211.394	211.394	138.999
812.5	211.589	211.589	134.395
815	211.567	211.567	119.163
817.5	211.759	211.759	119.813
820	212.355	212.355	123.613
822.5	213.073	213.073	159.994
825	212.895	212.895	173.671
827.5	211.534	211.534	168.397
830	209.713	209.713	124.699

Forward and Backward Scattering percentages:
WL(nm)	Forward %	Backward %
390	96.3007	3.69931
392.5	96.287	3.71299
395	96.3017	3.69826
397.5	96.3007	3.69933
400	96.3061	3.69388
402.5	96.3004	3.69958
405	96.285	3.715
407.5	96.2704	3.72963
410	96.3067	3.69327
412.5	96.2718	3.72823
415	96.1621	3.8379
417.5	96.6873	3.31268
420	96.2051	3.79489
422.5	96.2293	3.77073
425	96.2505	3.74947
427.5	96.3295	3.67048
430	96.2836	3.71637
432.5	96.2456	3.7544
435	96.2325	3.76749
437.5	96.2291	3.77094
440	96.2312	3.76879
442.5	96.2268	3.77318
445	96.2286	3.77141
447.5	96.205	3.79505
450	96.2304	3.76963
452.5	96.2112	3.78881
455	96.1987	3.80128
457.5	96.2193	3.78074
460	96.208	3.79203
462.5	96.2039	3.7961
465	96.1378	3.8622
467.5	96.1967	3.80331
470	96.2002	3.79981
472.5	96.195	3.80499
475	96.144	3.85598
477.5	96.1887	3.81126
480	96.1888	3.81121
482.5	96.1396	3.86035
485	96.1727	3.82728
487.5	96.1939	3.80608
490	96.1256	3.87436
492.5	96.1803	3.8197
495	96.1433	3.85668
497.5	96.1494	3.85063
500	96.1589	3.84108
502.5	96.1573	3.84271
505	96.1139	3.88607
507.5	96.0789	3.92111
510	96.1597	3.84026
512.5	96.129	3.87099
515	96.134	3.86603
517.5	96.1044	3.89556
520	96.1146	3.88545
522.5	96.1303	3.86972
525	96.1334	3.86656
527.5	96.1157	3.88428
530	96.1351	3.86486
532.5	96.0977	3.90225
535	96.1594	3.84065
537.5	96.0893	3.91073
540	96.0982	3.90183
542.5	96.1018	3.89825
545	96.0923	3.90772
547.5	96.0992	3.90083
550	96.065	3.93505
552.5	96.08	3.92005
555	96.1109	3.88909
557.5	96.1188	3.88121
560	96.0451	3.95491
562.5	96.0856	3.91443
565	95.982	4.01798
567.5	96.2056	3.79435
570	96.0785	3.92155
572.5	96.0102	3.98979
575	96.041	3.95901
577.5	95.9755	4.02447
580	96.0644	3.93563
582.5	96.032	3.96799
585	96.0091	3.99093
587.5	96.0128	3.98723
590	96.0337	3.9663
592.5	96.0346	3.9654
595	96.0099	3.99007
597.5	96.0044	3.99556
600	95.9922	4.00777
602.5	95.9977	4.00228
605	96.015	3.98495
607.5	95.9768	4.02319
610	95.9874	4.01265
612.5	96.0225	3.9775
615	96.0158	3.98423
617.5	95.9674	4.03255
620	95.9516	4.04837
622.5	95.9713	4.02873
625	95.9915	4.00848
627.5	96.0008	3.99916
630	95.9917	4.00832
632.5	95.9938	4.00617
635	96.0011	3.99891
637.5	95.8969	4.10314
640	95.9797	4.02028
642.5	95.9811	4.01888
645	95.8835	4.11652
647.5	95.9513	4.04875
650	95.914	4.08602
652.5	95.9481	4.05189
655	95.9266	4.07337
657.5	95.915	4.08502
660	95.9237	4.0763
662.5	95.9179	4.08214
665	95.9525	4.04755
667.5	95.9038	4.0962
670	95.8819	4.11807
672.5	95.9361	4.06387
675	95.9154	4.08464
677.5	95.8468	4.15325
680	95.8361	4.16386
682.5	95.9261	4.07392
685	95.8482	4.15177
687.5	95.9003	4.09972
690	95.9199	4.08005
692.5	95.9116	4.08838
695	95.9054	4.09456
697.5	95.841	4.15903
700	95.8817	4.11834
702.5	95.8371	4.16286
705	95.8748	4.12521
707.5	95.8752	4.12482
710	95.8844	4.1156
712.5	95.8267	4.1733
715	95.9145	4.08548
717.5	95.8953	4.10474
720	95.866	4.13402
722.5	95.8559	4.1441
725	95.8446	4.15537
727.5	95.8502	4.14979
730	95.8251	4.17494
732.5	95.799	4.20099
735	95.7909	4.20905
737.5	95.8136	4.18636
740	95.8471	4.15291
742.5	95.8014	4.19859
745	95.8003	4.19971
747.5	95.8027	4.19731
750	95.8386	4.16144
752.5	95.7685	4.23147
755	95.843	4.15698
757.5	95.7659	4.23411
760	95.7553	4.24472
762.5	95.7561	4.24389
765	95.8312	4.16876
767.5	95.797	4.20301
770	95.7444	4.2556
772.5	95.6992	4.30076
775	95.7444	4.25556
777.5	95.7731	4.22694
780	95.7411	4.2589
782.5	95.763	4.23702
785	95.7211	4.27891
787.5	95.7099	4.29014
790	95.7568	4.24321
792.5	95.7268	4.27318
795	95.7687	4.23128
797.5	95.7656	4.23444
800	95.7479	4.25213
802.5	95.7002	4.29984
805	95.6977	4.30225
807.5	95.6707	4.32929
810	95.7327	4.26725
812.5	95.733	4.267
815	95.7477	4.25228
817.5	95.8238	4.17616
820	95.8303	4.16967
822.5	95.6933	4.30666
825	95.4692	4.53081
827.5	95.3299	4.67006
830	95.6805	4.31947

