Simulation parameters:

Distribution: Poly Disperse - Log Normal 
Number of discrete sphere sizes: 101
Mean diameter of spheres: 13 um
Std. deviation: 0.25 um
Total Concentration (Spheres in a volume of 1mm^3): 1e+08

Wavelength Range: 390nm to 830nm in 2.5nm steps

Sphere and Medium Data:
Dia.(um)	Num. Den.(in a vol. of 1mm^3)	Ref. Index of sphere (real | imag)
4.65597	2038	1.333	0	1
4.92968	4794	1.333	0	1
5.20339	10260	1.333	0	1
5.4771	20227	1.333	0	1
5.7508	37102	1.333	0	1
6.02451	63857	1.333	0	1
6.29822	103874	1.333	0	1
6.57193	160679	1.333	0	1
6.84564	237611	1.333	0	1
7.11935	337453	1.333	0	1
7.39306	462092	1.333	0	1
7.66677	612244	1.333	0	1
7.94048	787277	1.333	0	1
8.21419	985164	1.333	0	1
8.4879	1.20256e+06	1.333	0	1
8.76161	1.43496e+06	1.333	0	1
9.03532	1.677e+06	1.333	0	1
9.30903	1.92274e+06	1.333	0	1
9.58274	2.16604e+06	1.333	0	1
9.85645	2.40085e+06	1.333	0	1
10.1302	2.6215e+06	1.333	0	1
10.4039	2.823e+06	1.333	0	1
10.6776	3.00116e+06	1.333	0	1
10.9513	3.15271e+06	1.333	0	1
11.225	3.27539e+06	1.333	0	1
11.4987	3.3679e+06	1.333	0	1
11.7724	3.42989e+06	1.333	0	1
12.0461	3.46182e+06	1.333	0	1
12.3198	3.46489e+06	1.333	0	1
12.5935	3.44092e+06	1.333	0	1
12.8673	3.39216e+06	1.333	0	1
13.141	3.32121e+06	1.333	0	1
13.4147	3.23089e+06	1.333	0	1
13.6884	3.12411e+06	1.333	0	1
13.9621	3.00377e+06	1.333	0	1
14.2358	2.87273e+06	1.333	0	1
14.5095	2.73367e+06	1.333	0	1
14.7832	2.58911e+06	1.333	0	1
15.0569	2.44133e+06	1.333	0	1
15.3306	2.29239e+06	1.333	0	1
15.6044	2.14406e+06	1.333	0	1
15.8781	1.99789e+06	1.333	0	1
16.1518	1.85517e+06	1.333	0	1
16.4255	1.71694e+06	1.333	0	1
16.6992	1.58406e+06	1.333	0	1
16.9729	1.45715e+06	1.333	0	1
17.2466	1.33666e+06	1.333	0	1
17.5203	1.22291e+06	1.333	0	1
17.794	1.11605e+06	1.333	0	1
18.0677	1.01613e+06	1.333	0	1
18.3415	923083	1.333	0	1
18.6152	836788	1.333	0	1
18.8889	757044	1.333	0	1
19.1626	683602	1.333	0	1
19.4363	616179	1.333	0	1
19.71	554463	1.333	0	1
19.9837	498126	1.333	0	1
20.2574	446832	1.333	0	1
20.5311	400241	1.333	0	1
20.8048	358020	1.333	0	1
21.0786	319837	1.333	0	1
21.3523	285377	1.333	0	1
21.626	254335	1.333	0	1
21.8997	226420	1.333	0	1
22.1734	201360	1.333	0	1
22.4471	178897	1.333	0	1
22.7208	158792	1.333	0	1
22.9945	140822	1.333	0	1
23.2682	124782	1.333	0	1
23.5419	110482	1.333	0	1
23.8156	97749	1.333	0	1
24.0894	86422	1.333	0	1
24.3631	76357	1.333	0	1
24.6368	67422	1.333	0	1
24.9105	59497	1.333	0	1
25.1842	52475	1.333	0	1
25.4579	46258	1.333	0	1
25.7316	40757	1.333	0	1
26.0053	35893	1.333	0	1
26.279	31597	1.333	0	1
26.5527	27803	1.333	0	1
26.8265	24456	1.333	0	1
27.1002	21504	1.333	0	1
27.3739	18902	1.333	0	1
27.6476	16610	1.333	0	1
27.9213	14591	1.333	0	1
28.195	12815	1.333	0	1
28.4687	11251	1.333	0	1
28.7424	9877	1.333	0	1
29.0161	8668	1.333	0	1
29.2898	7606	1.333	0	1
29.5636	6673	1.333	0	1
29.8373	5854	1.333	0	1
30.111	5134	1.333	0	1
30.3847	4502	1.333	0	1
30.6584	3948	1.333	0	1
30.9321	3461	1.333	0	1
31.2058	3034	1.333	0	1
31.4795	2660	1.333	0	1
31.7532	2332	1.333	0	1
32.0269	2044	1.333	0	1


Output:


Scattering Coefficient (us), g and Reduced Scattering Coefficient (us'):
WL(nm)	us(mm^-1)	g	us'(mm^-1)
390	31336.1	0.86524	4222.86
392.5	31305.8	0.866055	4193.24
395	31341.7	0.865225	4224.07
397.5	31338.1	0.865356	4219.49
400	31346.7	0.86516	4226.8
402.5	31341.4	0.865342	4220.37
405	31354.4	0.86502	4232.21
407.5	31338.8	0.865436	4217.06
410	31359.7	0.865122	4229.73
412.5	31362.6	0.865	4233.94
415	31393.8	0.864204	4263.17
417.5	31393.5	0.864151	4264.79
420	31366.5	0.864992	4234.73
422.5	31439	0.863337	4296.56
425	31397.2	0.864211	4263.4
427.5	31396.5	0.864345	4259.1
430	31409.4	0.864041	4270.39
432.5	31403.2	0.864269	4262.4
435	31431.7	0.8636	4287.28
437.5	31409.1	0.864168	4266.37
440	31423.8	0.863828	4279.04
442.5	31429.8	0.863693	4284.09
445	31439.3	0.863478	4292.14
447.5	31443.3	0.863504	4291.88
450	31409.3	0.864942	4242.07
452.5	31517.4	0.861484	4365.66
455	31424.8	0.864041	4272.49
457.5	31457	0.863266	4301.26
460	31457.4	0.863313	4299.82
462.5	31468.2	0.863078	4308.7
465	31488.8	0.862247	4337.67
467.5	31471.5	0.863065	4309.54
470	31511	0.862093	4345.58
472.5	31509	0.862195	4342.11
475	31503.2	0.86198	4348.07
477.5	31490.8	0.862978	4314.94
480	31512.3	0.862114	4345.09
482.5	31493.3	0.862701	4324
485	31546.5	0.861373	4373.21
487.5	31491.9	0.8628	4320.67
490	31541.3	0.8616	4365.33
492.5	31520.3	0.862169	4344.47
495	31543	0.861691	4362.69
497.5	31554.7	0.861247	4378.31
500	31542.8	0.861766	4360.29
502.5	31558.2	0.861346	4375.66
505	31559.2	0.86115	4382
507.5	31603.8	0.86096	4394.19
510	31515	0.861057	4378.79
512.5	31617.9	0.863401	4318.99
515	31552.9	0.855106	4571.82
517.5	31573.1	0.86797	4168.61
520	31570.3	0.856223	4539.09
522.5	31544.4	0.86431	4280.27
525	31580.4	0.861397	4377.13
527.5	31532.4	0.862829	4325.32
530	31559.8	0.862117	4351.56
532.5	31584.2	0.861034	4389.13
535	31625	0.860086	4424.79
537.5	31617.9	0.860411	4413.5
540	31649.3	0.859423	4449.17
542.5	31631.9	0.860156	4423.53
545	31638.6	0.85984	4434.46
547.5	31671.7	0.859062	4463.73
550	31645.7	0.859808	4436.48
552.5	31659.4	0.859448	4449.8
555	31653.7	0.859666	4442.09
557.5	31679.4	0.859044	4465.41
560	31681.1	0.859014	4466.58
562.5	31666	0.859435	4451.14
565	31684.3	0.859027	4466.63
567.5	31672.8	0.859324	4455.59
570	31669.9	0.859487	4450.03
572.5	31697.6	0.858676	4479.64
575	31690.4	0.858988	4468.72
577.5	31689.3	0.859081	4465.64
580	31726.7	0.858196	4498.96
582.5	31718.2	0.858387	4491.73
585	31713.9	0.858559	4485.64
587.5	31706.6	0.858792	4477.23
590	31705.4	0.858826	4475.98
592.5	31691	0.859279	4459.6
595	31735.3	0.858157	4501.42
597.5	31784.2	0.856789	4551.84
600	31718.2	0.858635	4483.86
602.5	31731.4	0.858365	4494.28
605	31756.4	0.857731	4517.94
607.5	31744.1	0.858081	4505.09
610	31755.6	0.857833	4514.59
612.5	31762.2	0.857661	4521.01
615	31781.6	0.857177	4539.14
617.5	31767	0.85766	4521.7
620	31797.7	0.856883	4550.81
622.5	31794.2	0.857104	4543.26
625	31800.9	0.856923	4549.98
627.5	31772	0.857879	4515.48
630	31736.2	0.859296	4465.39
632.5	31812.5	0.856797	4555.66
635	31784.8	0.857423	4531.78
637.5	31762.7	0.858099	4507.14
640	31788.5	0.857403	4532.96
642.5	31834.5	0.856217	4577.27
645	31843.7	0.856059	4583.61
647.5	31815.5	0.856826	4555.13
650	31819.2	0.856702	4559.63
652.5	31869.7	0.855468	4606.21
655	31847.6	0.856057	4584.24
657.5	31845.9	0.856167	4580.47
660	31852.4	0.856028	4585.84
662.5	31827	0.856838	4556.41
665	31890	0.855114	4620.41
667.5	31887.8	0.855199	4617.38
670	31854.3	0.856125	4583.03
672.5	31865.3	0.855883	4592.32
675	31872.8	0.855698	4599.31
677.5	31917.2	0.854613	4640.34
680	31889.7	0.85534	4613.16
682.5	31887.8	0.855488	4608.16
685	31879.5	0.855482	4607.17
687.5	31925.3	0.855022	4628.46
690	31864.3	0.855677	4598.77
692.5	31983.2	0.853081	4698.95
695	31900	0.85524	4617.85
697.5	31906.9	0.854844	4631.47
700	31949	0.853925	4666.94
702.5	31801.3	0.858004	4515.64
705	32109.9	0.849669	4827.11
707.5	31876.9	0.856362	4578.74
710	31982.1	0.853257	4693.13
712.5	31936.4	0.854487	4647.17
715	32019.6	0.852458	4724.25
717.5	31957	0.85423	4658.38
720	31976.7	0.853845	4673.55
722.5	31971.3	0.853867	4672.06
725	31981.9	0.853275	4692.54
727.5	31960.9	0.853797	4672.79
730	32006.9	0.852936	4707.06
732.5	31987.8	0.853875	4674.23
735	31999.3	0.853477	4688.65
737.5	31996.4	0.853331	4692.88
740	31999	0.853126	4699.82
742.5	31989.1	0.853465	4687.53
745	32045.1	0.852193	4736.5
747.5	32004.4	0.853352	4693.39
750	32025.2	0.852919	4710.29
752.5	32055.6	0.85202	4743.59
755	32047.6	0.852318	4732.86
757.5	32096.3	0.851148	4777.61
760	32099.2	0.851021	4782.1
762.5	32099.7	0.851035	4781.74
765	32075.2	0.851651	4758.32
767.5	32059.7	0.852195	4738.59
770	32058.4	0.852159	4739.54
772.5	32067.1	0.851983	4746.48
775	32077.9	0.851715	4756.66
777.5	32045.1	0.852783	4717.59
780	32060.6	0.852143	4740.4
782.5	32069.3	0.852039	4745
785	32178.6	0.849216	4852.01
787.5	32017.5	0.854227	4667.29
790	32022.9	0.852913	4710.17
792.5	32074	0.852223	4739.8
795	32095.8	0.851433	4768.37
797.5	32153.1	0.850309	4813.03
800	32048.5	0.852797	4717.62
802.5	32168.9	0.849795	4831.94
805	32114.6	0.851151	4780.23
807.5	32112.1	0.851196	4778.41
810	32113.8	0.851162	4779.75
812.5	32135.1	0.850692	4798.02
815	32144	0.850669	4800.11
817.5	32158	0.850485	4808.09
820	32154.2	0.850433	4809.2
822.5	32164.7	0.849923	4827.18
825	32129.7	0.850807	4793.51
827.5	32156.2	0.850336	4812.64
830	32156.9	0.850552	4805.79

Scattering (Csca), Extinction (Cext) and Backscattering (Cback) Cross Sections:
WL(nm)	Csca(um^2)	Cext(um^2)	Cback(um^2)
390	313.361	313.361	229.425
392.5	313.058	313.058	192.382
395	313.417	313.417	197.416
397.5	313.381	313.381	188.738
400	313.467	313.467	223.123
402.5	313.414	313.414	205.892
405	313.544	313.544	185.703
407.5	313.388	313.388	175.862
410	313.597	313.597	202.561
412.5	313.626	313.626	211.614
415	313.938	313.938	204.161
417.5	313.935	313.935	217.573
420	313.665	313.665	201.965
422.5	314.39	314.39	184.539
425	313.972	313.972	221.346
427.5	313.965	313.965	197.497
430	314.094	314.094	201.11
432.5	314.032	314.032	200.355
435	314.317	314.317	216.091
437.5	314.091	314.091	192.649
440	314.238	314.238	208.456
442.5	314.298	314.298	234.205
445	314.393	314.393	206.709
447.5	314.433	314.433	206.275
450	314.093	314.093	186.886
452.5	315.174	315.174	253.357
455	314.248	314.248	174.423
457.5	314.57	314.57	209.74
460	314.574	314.574	196.878
462.5	314.682	314.682	201.212
465	314.888	314.888	237.469
467.5	314.715	314.715	201.31
470	315.11	315.11	233.026
472.5	315.09	315.09	224.101
475	315.032	315.032	215.789
477.5	314.908	314.908	194.325
480	315.123	315.123	208.027
482.5	314.933	314.933	198.14
485	315.465	315.465	236.531
487.5	314.919	314.919	182.434
490	315.413	315.413	239.638
492.5	315.203	315.203	189.866
495	315.43	315.43	234.407
497.5	315.547	315.547	193.43
500	315.428	315.428	212.881
502.5	315.582	315.582	205.468
505	315.592	315.592	214.754
507.5	316.038	316.038	211.079
510	315.15	315.15	220.691
512.5	316.179	316.179	173.492
515	315.529	315.529	301.413
517.5	315.731	315.731	74.6308
520	315.703	315.703	317.083
522.5	315.444	315.444	142.765
525	315.804	315.804	211.349
527.5	315.324	315.324	245.408
530	315.598	315.598	253.574
532.5	315.842	315.842	184.136
535	316.25	316.25	279.294
537.5	316.179	316.179	67.9221
540	316.493	316.493	341.717
542.5	316.319	316.319	146.587
545	316.386	316.386	239.463
547.5	316.717	316.717	220.726
550	316.457	316.457	201.396
552.5	316.594	316.594	189.831
555	316.537	316.537	198.959
557.5	316.794	316.794	246.546
560	316.811	316.811	214.032
562.5	316.66	316.66	200.134
565	316.843	316.843	226.101
567.5	316.728	316.728	205.799
570	316.699	316.699	174.292
572.5	316.976	316.976	215.225
575	316.904	316.904	203.393
577.5	316.893	316.893	205.588
580	317.267	317.267	211.371
582.5	317.182	317.182	217.203
585	317.139	317.139	210.626
587.5	317.066	317.066	208.645
590	317.054	317.054	205.506
592.5	316.91	316.91	181.066
595	317.353	317.353	223.367
597.5	317.842	317.842	233.637
600	317.182	317.182	193.673
602.5	317.314	317.314	182.386
605	317.564	317.564	217.601
607.5	317.441	317.441	192.32
610	317.556	317.556	214.714
612.5	317.622	317.622	194.156
615	317.816	317.816	221.908
617.5	317.67	317.67	200.208
620	317.977	317.977	223.563
622.5	317.942	317.942	182.996
625	318.009	318.009	221.479
627.5	317.72	317.72	186.95
630	317.362	317.362	178.405
632.5	318.125	318.125	236.367
635	317.848	317.848	188.371
637.5	317.627	317.627	153.128
640	317.885	317.885	182.913
642.5	318.345	318.345	228.264
645	318.437	318.437	225.995
647.5	318.155	318.155	179.841
650	318.192	318.192	168.81
652.5	318.697	318.697	211.467
655	318.476	318.476	216.908
657.5	318.459	318.459	226.291
660	318.524	318.524	196.76
662.5	318.27	318.27	202.241
665	318.9	318.9	203.343
667.5	318.878	318.878	241.769
670	318.543	318.543	194.085
672.5	318.653	318.653	191.479
675	318.728	318.728	214.915
677.5	319.172	319.172	217.233
680	318.897	318.897	206.016
682.5	318.878	318.878	192.579
685	318.795	318.795	200.619
687.5	319.253	319.253	206.762
690	318.643	318.643	199.672
692.5	319.832	319.832	244.296
695	319	319	201.354
697.5	319.069	319.069	205.668
700	319.49	319.49	205.621
702.5	318.013	318.013	191.847
705	321.099	321.099	186.557
707.5	318.769	318.769	218.886
710	319.821	319.821	212.14
712.5	319.364	319.364	190.384
715	320.196	320.196	324.844
717.5	319.57	319.57	195.732
720	319.767	319.767	240.978
722.5	319.713	319.713	195.468
725	319.819	319.819	208.624
727.5	319.609	319.609	206.372
730	320.069	320.069	244.92
732.5	319.878	319.878	217.599
735	319.993	319.993	203.185
737.5	319.964	319.964	216.497
740	319.99	319.99	205.542
742.5	319.891	319.891	212.153
745	320.451	320.451	225.474
747.5	320.044	320.044	200.44
750	320.252	320.252	209.8
752.5	320.556	320.556	204.834
755	320.476	320.476	214.344
757.5	320.963	320.963	232.875
760	320.992	320.992	221.031
762.5	320.997	320.997	263.301
765	320.752	320.752	235.175
767.5	320.597	320.597	211.662
770	320.584	320.584	208.842
772.5	320.671	320.671	208.887
775	320.779	320.779	204.612
777.5	320.451	320.451	188.408
780	320.606	320.606	220.569
782.5	320.693	320.693	224.914
785	321.786	321.786	230.141
787.5	320.175	320.175	148.707
790	320.229	320.229	193.908
792.5	320.74	320.74	209.502
795	320.958	320.958	246.719
797.5	321.531	321.531	253.651
800	320.485	320.485	150.337
802.5	321.689	321.689	236.151
805	321.146	321.146	172.553
807.5	321.121	321.121	215.563
810	321.138	321.138	234.961
812.5	321.351	321.351	184.59
815	321.44	321.44	216.93
817.5	321.58	321.58	217.298
820	321.542	321.542	213.06
822.5	321.647	321.647	237.666
825	321.297	321.297	191.056
827.5	321.562	321.562	215.863
830	321.569	321.569	205.246

Forward and Backward Scattering percentages:
WL(nm)	Forward %	Backward %
390	96.4164	3.58355
392.5	96.4295	3.57054
395	96.4077	3.59231
397.5	96.4306	3.56942
400	96.4106	3.58937
402.5	96.4205	3.57953
405	96.4129	3.58715
407.5	96.4225	3.57746
410	96.4054	3.59464
412.5	96.403	3.59704
415	96.3731	3.6269
417.5	96.3827	3.6173
420	96.4043	3.59568
422.5	96.3586	3.6414
425	96.387	3.61295
427.5	96.3911	3.60886
430	96.3758	3.62421
432.5	96.3858	3.61415
435	96.3593	3.64071
437.5	96.3777	3.62229
440	96.367	3.63303
442.5	96.3582	3.6418
445	96.3554	3.64456
447.5	96.3613	3.63874
450	96.402	3.59799
452.5	96.2782	3.72179
455	96.3753	3.62472
457.5	96.3574	3.64257
460	96.3528	3.64717
462.5	96.3397	3.66032
465	96.3203	3.67968
467.5	96.3355	3.66454
470	96.3154	3.68455
472.5	96.2736	3.72642
475	96.3054	3.69463
477.5	96.3563	3.64374
480	96.3146	3.6854
482.5	96.3338	3.66615
485	96.2759	3.7241
487.5	96.3445	3.65555
490	96.2908	3.70919
492.5	96.3182	3.68184
495	96.2883	3.71171
497.5	96.2876	3.71241
500	96.299	3.70102
502.5	96.2907	3.7093
505	96.2768	3.72319
507.5	96.2825	3.71747
510	96.2439	3.75608
512.5	96.4114	3.58855
515	95.9764	4.02364
517.5	96.5376	3.46237
520	96.2051	3.79489
522.5	96.3318	3.66823
525	96.3215	3.67848
527.5	96.3737	3.62633
530	96.3029	3.69709
532.5	96.2956	3.70435
535	96.237	3.76295
537.5	96.2576	3.74241
540	96.2223	3.77766
542.5	96.2424	3.75756
545	96.2352	3.76478
547.5	96.1982	3.80179
550	96.2295	3.77046
552.5	96.2287	3.77131
555	96.2258	3.7742
557.5	96.205	3.79503
560	96.2097	3.79026
562.5	96.2208	3.77916
565	96.1909	3.80912
567.5	96.2264	3.77356
570	96.2265	3.77346
572.5	96.1858	3.81421
575	96.1946	3.80539
577.5	96.1979	3.80214
580	96.1781	3.82188
582.5	96.1886	3.81141
585	96.195	3.80499
587.5	96.205	3.79498
590	96.1929	3.80706
592.5	96.2166	3.7834
595	96.187	3.813
597.5	96.1121	3.88785
600	96.1946	3.80539
602.5	96.1952	3.80477
605	96.1638	3.83618
607.5	96.1707	3.82933
610	96.1583	3.8417
612.5	96.1582	3.84185
615	96.1482	3.85177
617.5	96.1533	3.8467
620	96.1282	3.87181
622.5	96.1407	3.85931
625	96.1382	3.86179
627.5	96.1785	3.82155
630	96.2349	3.76511
632.5	96.0842	3.91583
635	96.1695	3.83046
637.5	96.1984	3.80156
640	96.1413	3.85868
642.5	96.103	3.89703
645	96.1053	3.89472
647.5	96.1316	3.86843
650	96.1334	3.86656
652.5	96.0717	3.92831
655	96.1076	3.8924
657.5	96.1056	3.89442
660	96.1044	3.8956
662.5	96.1445	3.85553
665	96.0907	3.90935
667.5	96.0827	3.91728
670	96.1178	3.88217
672.5	96.1025	3.89747
675	96.092	3.90798
677.5	96.0572	3.94278
680	96.0915	3.90854
682.5	96.0833	3.91669
685	96.0799	3.92007
687.5	96.0819	3.9181
690	96.102	3.89804
692.5	95.9893	4.01068
695	96.0772	3.92283
697.5	96.0619	3.93806
700	96.0438	3.95615
702.5	96.1976	3.80239
705	95.8625	4.13745
707.5	96.0872	3.91281
710	96.038	3.96198
712.5	96.0366	3.96344
715	95.9755	4.02447
717.5	96.0462	3.95379
720	96.0203	3.97968
722.5	96.0445	3.95553
725	96.0085	3.99153
727.5	96.0327	3.96734
730	95.9943	4.00568
732.5	96.0299	3.97013
735	96.0057	3.9943
737.5	95.9911	4.00886
740	96.0117	3.98831
742.5	96.0121	3.98793
745	95.9777	4.02229
747.5	96.0169	3.98306
750	96.0109	3.98913
752.5	95.9636	4.03639
755	95.9806	4.0194
757.5	95.9165	4.0835
760	95.9423	4.05774
762.5	95.9225	4.0775
765	95.9572	4.04275
767.5	95.9909	4.00913
770	95.9775	4.02248
772.5	95.9711	4.02892
775	95.9543	4.04567
777.5	96.0017	3.99833
780	95.9917	4.00832
782.5	95.9578	4.04218
785	95.8654	4.13464
787.5	96.0753	3.92466
790	96.0296	3.97039
792.5	95.9905	4.00945
795	95.9152	4.08476
797.5	95.8854	4.11456
800	96.0052	3.99481
802.5	95.8854	4.11462
805	95.9362	4.06379
807.5	95.954	4.046
810	95.9423	4.05765
812.5	95.9149	4.08514
815	95.9188	4.08117
817.5	95.9047	4.09534
820	95.9257	4.0743
822.5	95.8914	4.1086
825	95.9325	4.06751
827.5	95.9193	4.08069
830	95.9179	4.08208

