Simulation parameters:

Distribution: Poly Disperse - Log Normal 
Number of discrete sphere sizes: 101
Mean diameter of spheres: 14 um
Std. deviation: 0.25 um
Total Concentration (Spheres in a volume of 1mm^3): 1e+08

Wavelength Range: 390nm to 830nm in 2.5nm steps

Sphere and Medium Data:
Dia.(um)	Num. Den.(in a vol. of 1mm^3)	Ref. Index of sphere (real | imag)
5.01412	2038	1.333	0	1
5.30888	4794	1.333	0	1
5.60365	10260	1.333	0	1
5.89841	20227	1.333	0	1
6.19317	37102	1.333	0	1
6.48794	63857	1.333	0	1
6.7827	103874	1.333	0	1
7.07747	160679	1.333	0	1
7.37223	237611	1.333	0	1
7.667	337453	1.333	0	1
7.96176	462092	1.333	0	1
8.25652	612244	1.333	0	1
8.55129	787277	1.333	0	1
8.84605	985164	1.333	0	1
9.14082	1.20256e+06	1.333	0	1
9.43558	1.43496e+06	1.333	0	1
9.73035	1.677e+06	1.333	0	1
10.0251	1.92274e+06	1.333	0	1
10.3199	2.16604e+06	1.333	0	1
10.6146	2.40085e+06	1.333	0	1
10.9094	2.6215e+06	1.333	0	1
11.2042	2.823e+06	1.333	0	1
11.4989	3.00116e+06	1.333	0	1
11.7937	3.15271e+06	1.333	0	1
12.0885	3.27539e+06	1.333	0	1
12.3832	3.3679e+06	1.333	0	1
12.678	3.42989e+06	1.333	0	1
12.9728	3.46182e+06	1.333	0	1
13.2675	3.46489e+06	1.333	0	1
13.5623	3.44092e+06	1.333	0	1
13.857	3.39216e+06	1.333	0	1
14.1518	3.32121e+06	1.333	0	1
14.4466	3.23089e+06	1.333	0	1
14.7413	3.12411e+06	1.333	0	1
15.0361	3.00377e+06	1.333	0	1
15.3309	2.87273e+06	1.333	0	1
15.6256	2.73367e+06	1.333	0	1
15.9204	2.58911e+06	1.333	0	1
16.2152	2.44133e+06	1.333	0	1
16.5099	2.29239e+06	1.333	0	1
16.8047	2.14406e+06	1.333	0	1
17.0995	1.99789e+06	1.333	0	1
17.3942	1.85517e+06	1.333	0	1
17.689	1.71694e+06	1.333	0	1
17.9837	1.58406e+06	1.333	0	1
18.2785	1.45715e+06	1.333	0	1
18.5733	1.33666e+06	1.333	0	1
18.868	1.22291e+06	1.333	0	1
19.1628	1.11605e+06	1.333	0	1
19.4576	1.01613e+06	1.333	0	1
19.7523	923083	1.333	0	1
20.0471	836788	1.333	0	1
20.3419	757044	1.333	0	1
20.6366	683602	1.333	0	1
20.9314	616179	1.333	0	1
21.2262	554463	1.333	0	1
21.5209	498126	1.333	0	1
21.8157	446832	1.333	0	1
22.1104	400241	1.333	0	1
22.4052	358020	1.333	0	1
22.7	319837	1.333	0	1
22.9947	285377	1.333	0	1
23.2895	254335	1.333	0	1
23.5843	226420	1.333	0	1
23.879	201360	1.333	0	1
24.1738	178897	1.333	0	1
24.4686	158792	1.333	0	1
24.7633	140822	1.333	0	1
25.0581	124782	1.333	0	1
25.3529	110482	1.333	0	1
25.6476	97749	1.333	0	1
25.9424	86422	1.333	0	1
26.2371	76357	1.333	0	1
26.5319	67422	1.333	0	1
26.8267	59497	1.333	0	1
27.1214	52475	1.333	0	1
27.4162	46258	1.333	0	1
27.711	40757	1.333	0	1
28.0057	35893	1.333	0	1
28.3005	31597	1.333	0	1
28.5953	27803	1.333	0	1
28.89	24456	1.333	0	1
29.1848	21504	1.333	0	1
29.4796	18902	1.333	0	1
29.7743	16610	1.333	0	1
30.0691	14591	1.333	0	1
30.3638	12815	1.333	0	1
30.6586	11251	1.333	0	1
30.9534	9877	1.333	0	1
31.2481	8668	1.333	0	1
31.5429	7606	1.333	0	1
31.8377	6673	1.333	0	1
32.1324	5854	1.333	0	1
32.4272	5134	1.333	0	1
32.722	4502	1.333	0	1
33.0167	3948	1.333	0	1
33.3115	3461	1.333	0	1
33.6063	3034	1.333	0	1
33.901	2660	1.333	0	1
34.1958	2332	1.333	0	1
34.4906	2044	1.333	0	1


Output:


Scattering Coefficient (us), g and Reduced Scattering Coefficient (us'):
WL(nm)	us(mm^-1)	g	us'(mm^-1)
390	36251.5	0.866899	4825.11
392.5	36251.6	0.866721	4831.57
395	36267.7	0.866524	4840.86
397.5	36283.1	0.866257	4852.62
400	36270.8	0.866552	4840.29
402.5	36282.3	0.866302	4850.88
405	36276.2	0.866481	4843.56
407.5	36270.9	0.866674	4835.85
410	36289.7	0.866401	4848.27
412.5	36297.2	0.866188	4856.98
415	36307.6	0.865951	4866.98
417.5	36309.5	0.866018	4864.84
420	36342.5	0.86524	4897.51
422.5	36318.3	0.865727	4876.56
425	36301.2	0.866358	4851.35
427.5	36322.6	0.865848	4872.76
430	36333.4	0.865617	4882.59
432.5	36371.4	0.864815	4916.88
435	36388.8	0.864422	4933.54
437.5	36373.2	0.864868	4915.19
440	36372.5	0.864933	4912.74
442.5	36370.7	0.864938	4912.31
445	36392.5	0.864837	4918.92
447.5	36372.6	0.864804	4917.44
450	36354.2	0.865511	4889.25
452.5	36373.7	0.865167	4904.39
455	36461.8	0.863337	4982.99
457.5	36417	0.86413	4947.97
460	36404.4	0.864532	4931.62
462.5	36422.2	0.864153	4947.84
465	36430.6	0.863997	4954.68
467.5	36419.3	0.864331	4940.97
470	36441.6	0.863817	4962.72
472.5	36435.2	0.864	4955.2
475	36472.6	0.863209	4989.12
477.5	36448.5	0.863849	4962.48
480	36461.7	0.863578	4974.19
482.5	36458.7	0.863552	4974.73
485	36558.2	0.8614	5066.96
487.5	36442.9	0.864038	4954.84
490	36445.3	0.864041	4955.07
492.5	36499.3	0.862888	5004.49
495	36485.4	0.86324	4989.75
497.5	36491.1	0.863156	4993.61
500	36457	0.864059	4955.99
502.5	36502.9	0.862936	5003.22
505	36529.4	0.862584	5019.75
507.5	36560.6	0.861294	5071.16
510	36547.4	0.862671	5019.02
512.5	36526.1	0.862075	5037.87
515	36545.6	0.862432	5027.52
517.5	36541	0.862239	5033.92
520	36552.6	0.862108	5040.31
522.5	36584.1	0.861416	5069.97
525	36523.1	0.8628	5010.96
527.5	36561.1	0.862039	5044
530	36568.8	0.861859	5051.67
532.5	36580	0.861715	5058.47
535	36602	0.861161	5081.79
537.5	36560	0.862173	5038.95
540	36599	0.861428	5071.59
542.5	36590.6	0.86133	5074.03
545	36620.3	0.861456	5073.5
547.5	36595.5	0.860616	5100.82
550	36577.9	0.862543	5027.88
552.5	36725.1	0.860413	5126.37
555	36471.6	0.859543	5122.7
557.5	36689.5	0.865762	4925.15
560	36614.1	0.856223	5264.27
562.5	36571.9	0.864498	4955.57
565	36569.6	0.862107	5042.71
567.5	36519.7	0.863114	4999.02
570	36584.3	0.861809	5055.62
572.5	36732.8	0.858807	5186.4
575	36696.8	0.859599	5152.27
577.5	36638.8	0.861148	5087.38
580	36668.5	0.860223	5125.4
582.5	36701.5	0.859697	5149.33
585	36696.7	0.859828	5143.86
587.5	36685.3	0.860056	5133.88
590	36713.4	0.859499	5158.25
592.5	36719.5	0.859368	5163.94
595	36717.4	0.859448	5160.71
597.5	36725.1	0.859326	5166.26
600	36705.4	0.859819	5145.41
602.5	36729.8	0.859301	5167.86
605	36736.1	0.859185	5172.98
607.5	36713.5	0.859791	5147.56
610	36739.3	0.859206	5172.67
612.5	36727.7	0.859524	5159.38
615	36730.5	0.859508	5160.35
617.5	36779.4	0.85837	5209.05
620	36848.1	0.8569	5272.96
622.5	36776.2	0.85854	5202.36
625	36763.4	0.858792	5191.28
627.5	36786.7	0.858351	5210.79
630	36780.7	0.858559	5202.28
632.5	36780.2	0.858587	5201.2
635	36779.3	0.858594	5200.83
637.5	36812	0.857872	5232.03
640	36792.8	0.85843	5208.75
642.5	36778.6	0.858765	5194.42
645	36864.3	0.856957	5273.18
647.5	36807.7	0.858212	5218.89
650	36796.4	0.858357	5211.96
652.5	36861.2	0.856987	5271.63
655	36849.2	0.857377	5255.55
657.5	36866.8	0.856947	5273.88
660	36866.1	0.857	5271.84
662.5	36852.2	0.857384	5255.72
665	36842.1	0.85766	5244.11
667.5	36862.8	0.857217	5263.38
670	36868.2	0.857242	5263.24
672.5	36862.6	0.857339	5258.84
675	36831.6	0.857956	5231.7
677.5	36827.3	0.857542	5246.34
680	36875.6	0.856625	5287.03
682.5	36867.8	0.857201	5264.68
685	36935.6	0.855786	5326.65
687.5	36982.6	0.85484	5368.39
690	36926.7	0.856107	5313.49
692.5	36902.4	0.856665	5289.38
695	36912.3	0.856462	5298.3
697.5	36944.4	0.855769	5328.52
700	36902.8	0.856702	5288.09
702.5	36955.8	0.855683	5333.36
705	36920.1	0.856417	5301.1
707.5	36960.8	0.855437	5343.17
710	36947.2	0.855858	5325.63
712.5	36977	0.855177	5355.13
715	36908.9	0.856829	5284.3
717.5	36931.3	0.856313	5306.55
720	36952.2	0.855918	5324.16
722.5	36939.4	0.856243	5310.31
725	36976.6	0.855354	5348.54
727.5	36995.5	0.855069	5361.78
730	36959.6	0.855818	5328.91
732.5	37023.9	0.85446	5388.46
735	36982.3	0.855488	5344.38
737.5	36971.8	0.855468	5343.61
740	36997.2	0.855709	5338.35
742.5	36955.5	0.855331	5346.3
745	37069.8	0.854293	5401.32
747.5	36984.5	0.855269	5352.78
750	37017.1	0.855238	5358.66
752.5	37066.3	0.854089	5408.38
755	37035.6	0.854115	5402.94
757.5	37072.4	0.85467	5387.72
760	37015.4	0.854319	5392.43
762.5	37052.7	0.854503	5391.07
765	37185.3	0.85105	5538.75
767.5	37035.2	0.854574	5385.86
770	37135.2	0.852458	5479.01
772.5	37067.8	0.85411	5407.81
775	37109.7	0.853255	5445.67
777.5	37085.4	0.853768	5423.06
780	37093	0.853303	5441.42
782.5	37093.9	0.853169	5446.56
785	37123.4	0.852699	5468.33
787.5	37079.8	0.854121	5409.15
790	37101.8	0.853814	5423.74
792.5	37122.5	0.853158	5451.14
795	37123.8	0.852895	5461.11
797.5	37176	0.851578	5517.75
800	37122	0.853012	5456.5
802.5	37199.9	0.851364	5529.26
805	37117.5	0.853352	5443.22
807.5	37148.2	0.852748	5470.13
810	37172	0.852256	5491.96
812.5	37127.6	0.853203	5450.23
815	37083.9	0.854185	5407.38
817.5	37141.9	0.852911	5463.15
820	37121.7	0.853364	5443.38
822.5	37138.5	0.853055	5457.31
825	37146.9	0.85285	5466.15
827.5	37190.6	0.851926	5506.97
830	37199.7	0.85178	5513.74

Scattering (Csca), Extinction (Cext) and Backscattering (Cback) Cross Sections:
WL(nm)	Csca(um^2)	Cext(um^2)	Cback(um^2)
390	362.515	362.515	336.877
392.5	362.516	362.516	257.724
395	362.677	362.677	249.794
397.5	362.831	362.831	271.308
400	362.708	362.708	231.7
402.5	362.823	362.823	270.003
405	362.762	362.762	222.845
407.5	362.709	362.709	233.907
410	362.897	362.897	264.959
412.5	362.972	362.972	239.454
415	363.076	363.076	247.528
417.5	363.095	363.095	227.756
420	363.425	363.425	266.079
422.5	363.183	363.183	251.724
425	363.012	363.012	197.312
427.5	363.226	363.226	238.041
430	363.334	363.334	237.669
432.5	363.714	363.714	259.457
435	363.888	363.888	272.535
437.5	363.732	363.732	228.359
440	363.725	363.725	260.684
442.5	363.707	363.707	238.931
445	363.925	363.925	215.586
447.5	363.726	363.726	243.883
450	363.542	363.542	234.861
452.5	363.737	363.737	233.314
455	364.618	364.618	214.022
457.5	364.17	364.17	250.805
460	364.044	364.044	227.643
462.5	364.222	364.222	246.974
465	364.306	364.306	244.77
467.5	364.193	364.193	207.507
470	364.416	364.416	247.32
472.5	364.352	364.352	231.409
475	364.726	364.726	269.318
477.5	364.485	364.485	213.107
480	364.617	364.617	256.733
482.5	364.587	364.587	236.9
485	365.582	365.582	268.83
487.5	364.429	364.429	211.29
490	364.453	364.453	202.289
492.5	364.993	364.993	231.238
495	364.854	364.854	243.235
497.5	364.911	364.911	222.307
500	364.57	364.57	195.947
502.5	365.029	365.029	228.877
505	365.294	365.294	222.653
507.5	365.606	365.606	281.826
510	365.474	365.474	242.905
512.5	365.261	365.261	238.37
515	365.456	365.456	262.242
517.5	365.41	365.41	235.98
520	365.526	365.526	239.855
522.5	365.841	365.841	273.931
525	365.231	365.231	211.58
527.5	365.611	365.611	224.144
530	365.688	365.688	233.792
532.5	365.8	365.8	241.689
535	366.02	366.02	236.363
537.5	365.6	365.6	229.955
540	365.99	365.99	245.736
542.5	365.906	365.906	254.61
545	366.203	366.203	251.582
547.5	365.955	365.955	233.81
550	365.778	365.778	248.727
552.5	367.251	367.251	221.068
555	364.716	364.716	337.858
557.5	366.895	366.895	104.249
560	366.141	366.141	367.741
562.5	365.719	365.719	175.148
565	365.696	365.696	223.383
567.5	365.197	365.197	204.898
570	365.843	365.843	233.124
572.5	367.328	367.328	238.58
575	366.968	366.968	299.317
577.5	366.388	366.388	216.43
580	366.685	366.685	241.103
582.5	367.015	367.015	310.47
585	366.967	366.967	219.697
587.5	366.853	366.853	282.742
590	367.134	367.134	230.369
592.5	367.195	367.195	258.117
595	367.174	367.174	220.159
597.5	367.251	367.251	248.437
600	367.054	367.054	248.986
602.5	367.298	367.298	242.064
605	367.361	367.361	246.053
607.5	367.135	367.135	210.864
610	367.393	367.393	264.248
612.5	367.277	367.277	179.034
615	367.305	367.305	258.606
617.5	367.794	367.794	216.104
620	368.481	368.481	318.316
622.5	367.762	367.762	261.086
625	367.634	367.634	266.48
627.5	367.867	367.867	240.926
630	367.806	367.806	244.276
632.5	367.802	367.802	234.589
635	367.793	367.793	217.798
637.5	368.12	368.12	278.07
640	367.928	367.928	224.199
642.5	367.786	367.786	230.258
645	368.643	368.643	282.813
647.5	368.077	368.077	237.818
650	367.964	367.964	218.943
652.5	368.612	368.612	275.301
655	368.492	368.492	269.098
657.5	368.668	368.668	274.158
660	368.661	368.661	244.736
662.5	368.522	368.522	240.607
665	368.421	368.421	232.194
667.5	368.628	368.628	243.509
670	368.682	368.682	212.377
672.5	368.626	368.626	264.113
675	368.316	368.316	219.648
677.5	368.273	368.273	256.069
680	368.756	368.756	233.798
682.5	368.678	368.678	219.434
685	369.356	369.356	287.469
687.5	369.826	369.826	328.314
690	369.267	369.267	251.709
692.5	369.024	369.024	237.082
695	369.123	369.123	246.429
697.5	369.444	369.444	271.492
700	369.028	369.028	195.779
702.5	369.558	369.558	256.379
705	369.201	369.201	231.228
707.5	369.608	369.608	229.867
710	369.472	369.472	239.593
712.5	369.77	369.77	260.101
715	369.089	369.089	219.891
717.5	369.313	369.313	229.442
720	369.522	369.522	227.781
722.5	369.394	369.394	212.825
725	369.766	369.766	239.876
727.5	369.955	369.955	260.043
730	369.596	369.596	227.27
732.5	370.239	370.239	253.114
735	369.823	369.823	223.346
737.5	369.718	369.718	236.089
740	369.972	369.972	219.723
742.5	369.555	369.555	241.623
745	370.698	370.698	244.526
747.5	369.845	369.845	245.131
750	370.171	370.171	219.058
752.5	370.663	370.663	260.326
755	370.356	370.356	206.411
757.5	370.724	370.724	329.307
760	370.154	370.154	246.999
762.5	370.527	370.527	261.223
765	371.853	371.853	258.816
767.5	370.352	370.352	219.974
770	371.352	371.352	376.742
772.5	370.678	370.678	225.594
775	371.097	371.097	287.115
777.5	370.854	370.854	234.173
780	370.93	370.93	275.11
782.5	370.939	370.939	220.993
785	371.234	371.234	303
787.5	370.798	370.798	233.452
790	371.018	371.018	250.971
792.5	371.225	371.225	217.679
795	371.238	371.238	230.595
797.5	371.76	371.76	274.538
800	371.22	371.22	262.327
802.5	371.999	371.999	260.439
805	371.175	371.175	232.464
807.5	371.482	371.482	258.941
810	371.72	371.72	255.893
812.5	371.276	371.276	225.429
815	370.839	370.839	217.142
817.5	371.419	371.419	251.721
820	371.217	371.217	212.469
822.5	371.385	371.385	239.09
825	371.469	371.469	226.774
827.5	371.906	371.906	247.352
830	371.997	371.997	232.362

Forward and Backward Scattering percentages:
WL(nm)	Forward %	Backward %
390	96.4708	3.52917
392.5	96.4703	3.52969
395	96.4538	3.54616
397.5	96.4493	3.55066
400	96.4636	3.53641
402.5	96.4523	3.54773
405	96.4596	3.54037
407.5	96.4672	3.53278
410	96.4481	3.55189
412.5	96.4539	3.54614
415	96.4354	3.56457
417.5	96.4498	3.55015
420	96.4164	3.58355
422.5	96.4163	3.58366
425	96.4432	3.55684
427.5	96.4391	3.5609
430	96.4253	3.57466
432.5	96.3963	3.60367
435	96.378	3.62199
437.5	96.3901	3.60992
440	96.4047	3.59531
442.5	96.4018	3.5982
445	96.4216	3.5784
447.5	96.4086	3.59136
450	96.4198	3.5802
452.5	96.4213	3.57869
455	96.3586	3.6414
457.5	96.3889	3.61109
460	96.3984	3.60159
462.5	96.3859	3.6141
465	96.3724	3.62763
467.5	96.3838	3.61618
470	96.366	3.63395
472.5	96.3788	3.62122
475	96.3541	3.6459
477.5	96.3737	3.62628
480	96.3543	3.64566
482.5	96.3566	3.64342
485	96.2734	3.72662
487.5	96.3862	3.6138
490	96.3753	3.62472
492.5	96.3371	3.66295
495	96.3455	3.65446
497.5	96.3449	3.65513
500	96.3812	3.61883
502.5	96.3301	3.66986
505	96.3318	3.66819
507.5	96.2625	3.73746
510	96.3583	3.64166
512.5	96.2833	3.71671
515	96.3178	3.68222
517.5	96.3052	3.69479
520	96.3007	3.69931
522.5	96.2869	3.71307
525	96.3445	3.65555
527.5	96.3132	3.68684
530	96.3007	3.69933
532.5	96.2884	3.71163
535	96.2808	3.71924
537.5	96.3207	3.67928
540	96.285	3.715
542.5	96.2832	3.71681
545	96.2952	3.7048
547.5	96.279	3.72096
550	96.2718	3.72823
552.5	96.3423	3.65774
555	96.1082	3.89185
557.5	96.4398	3.5602
560	96.2051	3.79489
562.5	96.3457	3.65434
565	96.3559	3.64411
567.5	96.3465	3.65353
570	96.3295	3.67048
572.5	96.1855	3.81452
575	96.2363	3.76373
577.5	96.2777	3.72232
580	96.2325	3.76749
582.5	96.2254	3.77463
585	96.2318	3.76824
587.5	96.2418	3.75818
590	96.2268	3.77318
592.5	96.2277	3.77228
595	96.2287	3.77131
597.5	96.218	3.78202
600	96.2304	3.76963
602.5	96.2169	3.78311
605	96.2022	3.79783
607.5	96.247	3.75305
610	96.2193	3.78074
612.5	96.2307	3.76932
615	96.2282	3.77185
617.5	96.1755	3.82446
620	96.1378	3.8622
622.5	96.1977	3.80229
625	96.1891	3.81088
627.5	96.1778	3.82218
630	96.195	3.80499
632.5	96.1811	3.81894
635	96.1995	3.80047
637.5	96.1461	3.85391
640	96.1888	3.81121
642.5	96.1994	3.80055
645	96.1193	3.88071
647.5	96.1867	3.81333
650	96.1939	3.80608
652.5	96.1173	3.8827
655	96.1556	3.84436
657.5	96.1409	3.85913
660	96.1433	3.85668
662.5	96.1479	3.8521
665	96.1533	3.8467
667.5	96.1496	3.85042
670	96.1573	3.84271
672.5	96.1407	3.85932
675	96.1601	3.83989
677.5	96.1279	3.8721
680	96.1597	3.84026
682.5	96.1547	3.84531
685	96.0698	3.93023
687.5	96.0468	3.95321
690	96.1044	3.89556
692.5	96.118	3.88197
695	96.1204	3.87959
697.5	96.0981	3.90189
700	96.1334	3.86656
702.5	96.1031	3.89693
705	96.1248	3.87522
707.5	96.0775	3.92253
710	96.0977	3.90225
712.5	96.0459	3.95413
715	96.1332	3.86684
717.5	96.1134	3.88663
720	96.0982	3.90183
722.5	96.1214	3.87857
725	96.0792	3.92079
727.5	96.065	3.93497
730	96.0992	3.90083
732.5	96.0447	3.95528
735	96.0833	3.91669
737.5	96.0885	3.91154
740	96.1109	3.88909
742.5	96.0722	3.9278
745	96.0316	3.96837
747.5	96.0883	3.91165
750	96.0856	3.91443
752.5	96.0461	3.95386
755	95.9913	4.00871
757.5	96.0974	3.90257
760	96.0785	3.92155
762.5	96.0154	3.98462
765	95.9582	4.04183
767.5	96.0404	3.95959
770	95.9755	4.02447
772.5	96.0418	3.95821
775	95.9855	4.01447
777.5	96.0316	3.96839
780	96.0091	3.99093
782.5	95.9953	4.00472
785	95.9749	4.02515
787.5	96.0473	3.95266
790	96.0346	3.9654
792.5	96.0009	3.99912
795	95.9958	4.00421
797.5	95.9447	4.05527
800	95.9922	4.00777
802.5	95.9485	4.05149
805	96.0169	3.98306
807.5	96.0017	3.99831
810	95.9768	4.02319
812.5	96.0002	3.99978
815	96.0559	3.94412
817.5	95.9706	4.0294
820	96.0158	3.98423
822.5	95.9998	4.00021
825	96.0082	3.99183
827.5	95.9522	4.04777
830	95.9713	4.02873

