Simulation parameters:

Distribution: Poly Disperse - Log Normal 
Number of discrete sphere sizes: 101
Mean diameter of spheres: 5 um
Std. deviation: 0.25 um
Total Concentration (Spheres in a volume of 1mm^3): 1e+08

Wavelength Range: 390nm to 830nm in 2.5nm steps

Sphere and Medium Data:
Dia.(um)	Num. Den.(in a vol. of 1mm^3)	Ref. Index of sphere (real | imag)
1.79076	2038	1.333	0	1
1.89603	4794	1.333	0	1
2.0013	10260	1.333	0	1
2.10658	20227	1.333	0	1
2.21185	37102	1.333	0	1
2.31712	63857	1.333	0	1
2.42239	103874	1.333	0	1
2.52767	160679	1.333	0	1
2.63294	237611	1.333	0	1
2.73821	337453	1.333	0	1
2.84349	462092	1.333	0	1
2.94876	612244	1.333	0	1
3.05403	787277	1.333	0	1
3.1593	985164	1.333	0	1
3.26458	1.20256e+06	1.333	0	1
3.36985	1.43496e+06	1.333	0	1
3.47512	1.677e+06	1.333	0	1
3.5804	1.92274e+06	1.333	0	1
3.68567	2.16604e+06	1.333	0	1
3.79094	2.40085e+06	1.333	0	1
3.89622	2.6215e+06	1.333	0	1
4.00149	2.823e+06	1.333	0	1
4.10676	3.00116e+06	1.333	0	1
4.21203	3.15271e+06	1.333	0	1
4.31731	3.27539e+06	1.333	0	1
4.42258	3.3679e+06	1.333	0	1
4.52785	3.42989e+06	1.333	0	1
4.63313	3.46182e+06	1.333	0	1
4.7384	3.46489e+06	1.333	0	1
4.84367	3.44092e+06	1.333	0	1
4.94895	3.39216e+06	1.333	0	1
5.05422	3.32121e+06	1.333	0	1
5.15949	3.23089e+06	1.333	0	1
5.26476	3.12411e+06	1.333	0	1
5.37004	3.00377e+06	1.333	0	1
5.47531	2.87273e+06	1.333	0	1
5.58058	2.73367e+06	1.333	0	1
5.68586	2.58911e+06	1.333	0	1
5.79113	2.44133e+06	1.333	0	1
5.8964	2.29239e+06	1.333	0	1
6.00168	2.14406e+06	1.333	0	1
6.10695	1.99789e+06	1.333	0	1
6.21222	1.85517e+06	1.333	0	1
6.31749	1.71694e+06	1.333	0	1
6.42277	1.58406e+06	1.333	0	1
6.52804	1.45715e+06	1.333	0	1
6.63331	1.33666e+06	1.333	0	1
6.73859	1.22291e+06	1.333	0	1
6.84386	1.11605e+06	1.333	0	1
6.94913	1.01613e+06	1.333	0	1
7.0544	923083	1.333	0	1
7.15968	836788	1.333	0	1
7.26495	757044	1.333	0	1
7.37022	683602	1.333	0	1
7.4755	616179	1.333	0	1
7.58077	554463	1.333	0	1
7.68604	498126	1.333	0	1
7.79132	446832	1.333	0	1
7.89659	400241	1.333	0	1
8.00186	358020	1.333	0	1
8.10713	319837	1.333	0	1
8.21241	285377	1.333	0	1
8.31768	254335	1.333	0	1
8.42295	226420	1.333	0	1
8.52823	201360	1.333	0	1
8.6335	178897	1.333	0	1
8.73877	158792	1.333	0	1
8.84405	140822	1.333	0	1
8.94932	124782	1.333	0	1
9.05459	110482	1.333	0	1
9.15986	97749	1.333	0	1
9.26514	86422	1.333	0	1
9.37041	76357	1.333	0	1
9.47568	67422	1.333	0	1
9.58096	59497	1.333	0	1
9.68623	52475	1.333	0	1
9.7915	46258	1.333	0	1
9.89678	40757	1.333	0	1
10.002	35893	1.333	0	1
10.1073	31597	1.333	0	1
10.2126	27803	1.333	0	1
10.3179	24456	1.333	0	1
10.4231	21504	1.333	0	1
10.5284	18902	1.333	0	1
10.6337	16610	1.333	0	1
10.739	14591	1.333	0	1
10.8442	12815	1.333	0	1
10.9495	11251	1.333	0	1
11.0548	9877	1.333	0	1
11.1601	8668	1.333	0	1
11.2653	7606	1.333	0	1
11.3706	6673	1.333	0	1
11.4759	5854	1.333	0	1
11.5811	5134	1.333	0	1
11.6864	4502	1.333	0	1
11.7917	3948	1.333	0	1
11.897	3461	1.333	0	1
12.0022	3034	1.333	0	1
12.1075	2660	1.333	0	1
12.2128	2332	1.333	0	1
12.3181	2044	1.333	0	1


Output:


Scattering Coefficient (us), g and Reduced Scattering Coefficient (us'):
WL(nm)	us(mm^-1)	g	us'(mm^-1)
390	4809.68	0.84682	736.744
392.5	4829.28	0.83746	784.952
395	4761.46	0.844979	738.127
397.5	4797.4	0.856381	688.999
400	4883.11	0.829277	833.657
402.5	4775.94	0.84171	755.985
405	4783.55	0.851908	708.405
407.5	4828.38	0.841361	765.968
410	4833.3	0.839463	775.922
412.5	4828.14	0.840128	771.885
415	4800.78	0.845276	742.796
417.5	4882.68	0.832355	818.556
420	4818.14	0.843109	755.924
422.5	4827.61	0.841112	767.05
425	4825.04	0.841765	763.49
427.5	4826.21	0.841778	763.613
430	4829.88	0.841195	767.007
432.5	4834.09	0.840508	771.001
435	4833.26	0.840738	769.754
437.5	4832.73	0.840924	768.771
440	4832.67	0.841027	768.264
442.5	4840.98	0.83968	776.105
445	4835.91	0.840618	770.759
447.5	4840.24	0.839968	774.594
450	4840.46	0.840019	774.379
452.5	4849.57	0.838565	782.89
455	4843.61	0.839637	776.734
457.5	4844.79	0.839565	777.276
460	4842.17	0.840066	774.429
462.5	4849.68	0.838916	781.205
465	4853.41	0.838276	784.914
467.5	4850.67	0.838861	781.634
470	4855.84	0.83806	786.356
472.5	4862.35	0.837111	792.023
475	4858.54	0.837773	788.186
477.5	4863.89	0.836916	793.224
480	4857.65	0.838055	786.671
482.5	4860.69	0.837633	789.218
485	4862.16	0.837599	789.62
487.5	4866.95	0.83668	794.869
490	4868.53	0.836545	795.784
492.5	4877.52	0.835072	804.438
495	4870.68	0.836325	797.208
497.5	4868.72	0.836761	794.766
500	4867.06	0.837139	792.652
502.5	4882.95	0.834576	807.756
505	4877.16	0.835656	801.532
507.5	4869.44	0.837033	793.559
510	4886.55	0.834187	810.25
512.5	4884.39	0.834758	807.108
515	4880.1	0.835632	802.131
517.5	4874.59	0.836558	796.714
520	4879.06	0.835873	800.786
522.5	4885.25	0.834924	806.436
525	4888.02	0.834541	808.766
527.5	4893.24	0.833665	813.915
530	4890.5	0.834295	810.38
532.5	4891.76	0.834125	811.419
535	4890.76	0.834629	808.789
537.5	4894.04	0.834017	812.325
540	4898.25	0.833472	815.698
542.5	4889.61	0.834673	808.384
545	4906.59	0.832175	823.45
547.5	4880.03	0.836618	797.31
550	4914.47	0.830693	832.057
552.5	4890.46	0.835246	805.725
555	4894.22	0.83441	810.432
557.5	4910.94	0.831804	825.999
560	4912.07	0.831683	826.785
562.5	4909.65	0.832113	824.266
565	4905.63	0.832955	819.458
567.5	4913.26	0.831597	827.408
570	4916.93	0.831183	830.063
572.5	4919.65	0.830821	832.303
575	4922.42	0.830473	834.485
577.5	4920.08	0.830961	831.685
580	4919.14	0.831212	830.291
582.5	4927.13	0.82983	838.452
585	4925.42	0.830227	836.205
587.5	4923.17	0.830668	833.648
590	4925.91	0.830398	835.444
592.5	4920.47	0.83113	830.92
595	4925.9	0.830493	834.975
597.5	4927.56	0.830595	834.753
600	4929.59	0.829414	840.92
602.5	4931.41	0.829852	839.071
605	4929.31	0.830734	834.365
607.5	4945	0.826886	856.048
610	4912.24	0.833301	818.867
612.5	4954.64	0.826408	860.089
615	4953.75	0.82587	862.597
617.5	4920.65	0.832048	826.435
620	4933.64	0.830115	838.149
622.5	4928.8	0.830526	835.306
625	4935.35	0.829628	840.844
627.5	4944.24	0.828307	848.891
630	4942.65	0.828564	847.346
632.5	4946.55	0.828034	850.637
635	4952.18	0.827125	856.11
637.5	4950.79	0.82742	854.405
640	4951.54	0.827411	854.581
642.5	4955.35	0.826811	858.212
645	4953.04	0.827174	856.014
647.5	4952.99	0.82739	854.935
650	4960.46	0.826167	862.293
652.5	4957.3	0.826796	858.625
655	4961.02	0.826183	862.309
657.5	4964.5	0.825644	865.59
660	4959.26	0.826561	860.126
662.5	4961.39	0.826357	861.511
665	4960.31	0.826592	860.157
667.5	4960.06	0.826833	858.921
670	4975.62	0.824111	875.156
672.5	4963.21	0.826554	860.851
675	4981.22	0.823265	880.357
677.5	4964.69	0.826519	861.28
680	4983.41	0.822967	882.226
682.5	4968.16	0.826145	863.74
685	4976.99	0.82417	875.107
687.5	4977.96	0.824501	873.625
690	4971.24	0.825485	867.554
692.5	4992.12	0.822248	887.359
695	4978.82	0.824433	874.116
697.5	4985.67	0.823418	880.381
700	4986.82	0.823285	881.246
702.5	4988.9	0.82301	882.985
705	4993.03	0.822406	886.732
707.5	4987.24	0.82359	879.801
710	4990.01	0.822961	883.427
712.5	5001.63	0.821175	894.414
715	4997.31	0.822266	888.193
717.5	4986.83	0.823869	878.337
720	4994.54	0.822529	886.387
722.5	5007.93	0.820544	898.704
725	5004.79	0.821241	894.648
727.5	5000.81	0.821915	890.572
730	5003.03	0.821585	892.615
732.5	5007.79	0.820859	897.101
735	5014.93	0.819807	903.655
737.5	5019.3	0.819237	907.306
740	5021.75	0.818955	909.163
742.5	5019.5	0.819422	906.41
745	5021	0.819247	907.56
747.5	5022.25	0.819101	908.519
750	5022.66	0.819103	908.582
752.5	5020.05	0.819625	905.493
755	5019.14	0.81997	903.597
757.5	5024.51	0.819247	908.197
760	5030.86	0.818283	914.191
762.5	5031.05	0.818171	914.789
765	5027.5	0.818843	910.765
767.5	5033.83	0.817977	916.276
770	5033.61	0.818254	914.836
772.5	5035	0.818329	914.711
775	5039.06	0.817796	918.134
777.5	5047.81	0.816229	927.64
780	5048.09	0.815673	930.498
782.5	5039.83	0.816733	923.636
785	5031.07	0.818997	910.64
787.5	5033.8	0.820112	905.518
790	5053.38	0.817519	922.147
792.5	5073.79	0.813114	948.22
795	5084.9	0.809753	967.385
797.5	5069.92	0.811373	956.322
800	5026.17	0.819153	908.965
802.5	5002.8	0.824876	876.108
805	5024.91	0.822959	889.613
807.5	5090.94	0.813489	949.516
810	5162.62	0.800445	1030.23
812.5	5127.07	0.802991	1010.08
815	5024	0.818691	910.896
817.5	4991.21	0.825118	872.874
820	5003.53	0.825363	873.799
822.5	5081.21	0.815661	936.665
825	5180.45	0.798936	1041.6
827.5	5112.21	0.807703	983.063
830	5063.89	0.814431	939.702

Scattering (Csca), Extinction (Cext) and Backscattering (Cback) Cross Sections:
WL(nm)	Csca(um^2)	Cext(um^2)	Cback(um^2)
390	48.0968	48.0968	27.5693
392.5	48.2928	48.2928	39.146
395	47.6146	47.6146	30.4509
397.5	47.974	47.974	14.8941
400	48.8311	48.8311	56.7906
402.5	47.7594	47.7594	29.5868
405	47.8355	47.8355	18.3913
407.5	48.2838	48.2838	37.798
410	48.333	48.333	39.6588
412.5	48.2814	48.2814	18.1004
415	48.0078	48.0078	28.4877
417.5	48.8268	48.8268	75.6256
420	48.1814	48.1814	18.5557
422.5	48.2761	48.2761	28.1354
425	48.2504	48.2504	37.5376
427.5	48.2621	48.2621	28.5522
430	48.2988	48.2988	27.8163
432.5	48.3409	48.3409	34.4967
435	48.3326	48.3326	33.2225
437.5	48.3273	48.3273	24.1593
440	48.3267	48.3267	34.0609
442.5	48.4098	48.4098	32.4914
445	48.3591	48.3591	27.3508
447.5	48.4024	48.4024	30.6149
450	48.4046	48.4046	30.7486
452.5	48.4957	48.4957	33.3983
455	48.4361	48.4361	31.0277
457.5	48.4479	48.4479	29.4378
460	48.4217	48.4217	27.8694
462.5	48.4968	48.4968	29.9452
465	48.5341	48.5341	30.478
467.5	48.5067	48.5067	28.7739
470	48.5584	48.5584	30.7724
472.5	48.6235	48.6235	32.1801
475	48.5854	48.5854	27.5964
477.5	48.6389	48.6389	32.8145
480	48.5765	48.5765	29.9332
482.5	48.6069	48.6069	30.3996
485	48.6216	48.6216	28.5051
487.5	48.6695	48.6695	31.8774
490	48.6853	48.6853	28.4242
492.5	48.7752	48.7752	34.3013
495	48.7068	48.7068	30.7971
497.5	48.6872	48.6872	32.8199
500	48.6706	48.6706	28.3363
502.5	48.8295	48.8295	31.8232
505	48.7716	48.7716	28.7197
507.5	48.6944	48.6944	26.4583
510	48.8655	48.8655	32.1725
512.5	48.8439	48.8439	29.3869
515	48.801	48.801	27.3586
517.5	48.7459	48.7459	25.334
520	48.7906	48.7906	29.3014
522.5	48.8525	48.8525	32.0459
525	48.8802	48.8802	30.9835
527.5	48.9324	48.9324	32.7009
530	48.905	48.905	28.7739
532.5	48.9176	48.9176	30.8159
535	48.9076	48.9076	27.916
537.5	48.9404	48.9404	29.4525
540	48.9825	48.9825	29.1196
542.5	48.8961	48.8961	27.6405
545	49.0659	49.0659	29.145
547.5	48.8003	48.8003	24.8204
550	49.1447	49.1447	32.6073
552.5	48.9046	48.9046	25.0962
555	48.9422	48.9422	26.0085
557.5	49.1094	49.1094	32.2594
560	49.1207	49.1207	31.7133
562.5	49.0965	49.0965	31.9886
565	49.0563	49.0563	27.3653
567.5	49.1326	49.1326	30.2457
570	49.1693	49.1693	30.8216
572.5	49.1965	49.1965	30.9713
575	49.2242	49.2242	29.4984
577.5	49.2008	49.2008	32.3072
580	49.1914	49.1914	30.7681
582.5	49.2713	49.2713	36.3167
585	49.2542	49.2542	32.1266
587.5	49.2317	49.2317	29.1302
590	49.2591	49.2591	31.4739
592.5	49.2047	49.2047	29.5261
595	49.259	49.259	30.0645
597.5	49.2756	49.2756	28.0195
600	49.2959	49.2959	30.8978
602.5	49.3141	49.3141	28.4103
605	49.2931	49.2931	26.4713
607.5	49.45	49.45	33.0275
610	49.1224	49.1224	25.2713
612.5	49.5464	49.5464	32.652
615	49.5375	49.5375	37.0817
617.5	49.2065	49.2065	21.4679
620	49.3364	49.3364	31.2386
622.5	49.288	49.288	25.2369
625	49.3535	49.3535	28.5118
627.5	49.4424	49.4424	33.4583
630	49.4265	49.4265	25.9573
632.5	49.4655	49.4655	34.7056
635	49.5218	49.5218	29.3031
637.5	49.5079	49.5079	32.3958
640	49.5154	49.5154	30.2457
642.5	49.5535	49.5535	30.9152
645	49.5304	49.5304	31.6648
647.5	49.5299	49.5299	29.6213
650	49.6046	49.6046	32.9289
652.5	49.573	49.573	30.7697
655	49.6102	49.6102	32.3952
657.5	49.645	49.645	33.2786
660	49.5925	49.5925	31.4117
662.5	49.6139	49.6139	32.7865
665	49.6031	49.6031	29.9325
667.5	49.6006	49.6006	29.6454
670	49.7562	49.7562	33.5454
672.5	49.6321	49.6321	28.9204
675	49.8122	49.8122	34.2735
677.5	49.6469	49.6469	30.6423
680	49.8341	49.8341	35.6685
682.5	49.6816	49.6816	28.5715
685	49.7699	49.7699	32.9097
687.5	49.7796	49.7796	33.2074
690	49.7124	49.7124	28.7382
692.5	49.9212	49.9212	41.6754
695	49.7882	49.7882	30.568
697.5	49.8567	49.8567	31.2617
700	49.8682	49.8682	32.7253
702.5	49.889	49.889	32.9839
705	49.9303	49.9303	36.5899
707.5	49.8724	49.8724	34.9023
710	49.9001	49.9001	34.2251
712.5	50.0163	50.0163	33.5151
715	49.9731	49.9731	30.3184
717.5	49.8683	49.8683	28.6084
720	49.9454	49.9454	34.253
722.5	50.0793	50.0793	41.865
725	50.0479	50.0479	37.9465
727.5	50.0081	50.0081	31.174
730	50.0303	50.0303	29.919
732.5	50.0779	50.0779	32.991
735	50.1493	50.1493	36.5823
737.5	50.193	50.193	37.895
740	50.2175	50.2175	38.6554
742.5	50.195	50.195	36.8205
745	50.21	50.21	37.6371
747.5	50.2225	50.2225	37.9749
750	50.2266	50.2266	37.2527
752.5	50.2005	50.2005	35.3725
755	50.1914	50.1914	33.2343
757.5	50.2451	50.2451	34.3388
760	50.3086	50.3086	37.7155
762.5	50.3105	50.3105	35.5628
765	50.275	50.275	35.2851
767.5	50.3383	50.3383	39.3401
770	50.3361	50.3361	34.6259
772.5	50.35	50.35	36.4618
775	50.3906	50.3906	34.5739
777.5	50.4781	50.4781	36.0777
780	50.4809	50.4809	38.2021
782.5	50.3983	50.3983	38.3635
785	50.3107	50.3107	38.0452
787.5	50.338	50.338	35.2637
790	50.5338	50.5338	35.8865
792.5	50.7379	50.7379	35.2579
795	50.849	50.849	39.2069
797.5	50.6992	50.6992	41.4526
800	50.2617	50.2617	37.9654
802.5	50.0279	50.0279	31.3905
805	50.2491	50.2491	31.8427
807.5	50.9094	50.9094	39.0619
810	51.6262	51.6262	48.4821
812.5	51.2707	51.2707	47.9261
815	50.24	50.24	31.53
817.5	49.9121	49.9121	26.1923
820	50.0353	50.0353	28.0742
822.5	50.812	50.812	41.2874
825	51.8045	51.8045	58.7877
827.5	51.1221	51.1221	41.3847
830	50.6388	50.6388	31.3587

Forward and Backward Scattering percentages:
WL(nm)	Forward %	Backward %
390	95.8306	4.1694
392.5	95.5319	4.46806
395	95.5773	4.42269
397.5	96.264	3.73603
400	95.0069	4.99308
402.5	95.7598	4.24017
405	95.9669	4.03313
407.5	95.6216	4.3784
410	95.5571	4.44295
412.5	95.6675	4.33247
415	95.746	4.25401
417.5	95.3188	4.68115
420	95.6764	4.32358
422.5	95.5984	4.40156
425	95.6168	4.38325
427.5	95.6278	4.37223
430	95.586	4.41404
432.5	95.5843	4.41572
435	95.6072	4.39282
437.5	95.5608	4.43923
440	95.598	4.40197
442.5	95.5655	4.4345
445	95.5732	4.42684
447.5	95.5505	4.44951
450	95.5691	4.43088
452.5	95.5171	4.48293
455	95.5415	4.45852
457.5	95.536	4.46399
460	95.5585	4.44148
462.5	95.5367	4.46328
465	95.4882	4.51185
467.5	95.5211	4.47892
470	95.4806	4.51939
472.5	95.4772	4.52279
475	95.4721	4.52789
477.5	95.4343	4.56567
480	95.4926	4.50742
482.5	95.4561	4.54388
485	95.4796	4.52039
487.5	95.4569	4.54306
490	95.4333	4.56671
492.5	95.387	4.61304
495	95.4279	4.57208
497.5	95.4316	4.56837
500	95.4614	4.53857
502.5	95.3364	4.66364
505	95.3894	4.61061
507.5	95.4634	4.53661
510	95.3127	4.68725
512.5	95.3937	4.60634
515	95.3994	4.60056
517.5	95.4353	4.56474
520	95.4134	4.58659
522.5	95.3571	4.64285
525	95.3665	4.63354
527.5	95.3298	4.67025
530	95.3486	4.6514
532.5	95.3462	4.65383
535	95.3735	4.62646
537.5	95.3422	4.65778
540	95.3207	4.67926
542.5	95.3651	4.63493
545	95.3213	4.67872
547.5	95.4355	4.56445
550	95.2247	4.77533
552.5	95.3898	4.61021
555	95.3709	4.62909
557.5	95.267	4.73302
560	95.2471	4.75289
562.5	95.2671	4.73285
565	95.3185	4.6815
567.5	95.2626	4.73741
570	95.2525	4.74752
572.5	95.2427	4.75733
575	95.2255	4.77454
577.5	95.218	4.782
580	95.2459	4.75405
582.5	95.1857	4.8143
585	95.207	4.79298
587.5	95.2082	4.79178
590	95.2313	4.76873
592.5	95.2624	4.73763
595	95.1889	4.81109
597.5	95.2646	4.73535
600	95.1904	4.80962
602.5	95.1205	4.87947
605	95.321	4.67902
607.5	95.0864	4.91363
610	95.298	4.70198
612.5	95.0984	4.90157
615	95.0733	4.92665
617.5	95.2926	4.70737
620	95.2284	4.77158
622.5	95.2761	4.72394
625	95.1902	4.80984
627.5	95.1667	4.8333
630	95.1843	4.81573
632.5	95.1312	4.86878
635	95.096	4.904
637.5	95.1169	4.88308
640	95.117	4.88298
642.5	95.1018	4.89823
645	95.1147	4.8853
647.5	95.1357	4.86427
650	95.07	4.93004
652.5	95.1083	4.89166
655	95.0669	4.93308
657.5	95.0454	4.95459
660	95.1019	4.89807
662.5	95.0705	4.92952
665	95.1314	4.86856
667.5	95.1223	4.87765
670	95.0029	4.99712
672.5	95.1058	4.89422
675	94.9696	5.03042
677.5	95.0948	4.9052
680	94.956	5.04395
682.5	95.1097	4.89028
685	95.0393	4.96072
687.5	95.019	4.981
690	95.1154	4.8846
692.5	94.9032	5.09685
695	95.0555	4.94451
697.5	94.9972	5.00276
700	94.9931	5.00694
702.5	94.9761	5.02387
705	94.9413	5.05871
707.5	95.0339	4.96615
710	94.9762	5.02375
712.5	94.8961	5.10389
715	94.9803	5.01966
717.5	95.0567	4.94327
720	94.9989	5.0011
722.5	94.8877	5.1123
725	94.9137	5.08626
727.5	94.9704	5.02961
730	94.9555	5.04453
732.5	94.9206	5.07941
735	94.8566	5.1434
737.5	94.8306	5.16936
740	94.802	5.19803
742.5	94.8517	5.14828
745	94.8456	5.15439
747.5	94.8371	5.16286
750	94.8472	5.15278
752.5	94.8843	5.11572
755	94.9067	5.09332
757.5	94.8639	5.13615
760	94.8229	5.17711
762.5	94.8321	5.16787
765	94.8826	5.11738
767.5	94.8071	5.19291
770	94.8128	5.18721
772.5	94.8261	5.17389
775	94.8428	5.15723
777.5	94.8009	5.19913
780	94.7753	5.22471
782.5	94.7534	5.24663
785	94.7858	5.21416
787.5	94.8735	5.12648
790	94.8691	5.13087
792.5	94.7639	5.23609
795	94.5829	5.41711
797.5	94.5149	5.48511
800	94.7532	5.24676
802.5	95.0581	4.94187
805	95.074	4.92601
807.5	94.8114	5.18859
810	94.1949	5.80507
812.5	94.1112	5.88882
815	94.891	5.10896
817.5	95.2116	4.7884
820	95.2025	4.79747
822.5	94.7556	5.24443
825	93.9186	6.08135
827.5	94.5185	5.48154
830	94.8301	5.1699

