Simulation parameters:

Distribution: Poly Disperse - Log Normal 
Number of discrete sphere sizes: 101
Mean diameter of spheres: 12 um
Std. deviation: 0.25 um
Total Concentration (Spheres in a volume of 1mm^3): 1e+08

Wavelength Range: 390nm to 830nm in 2.5nm steps

Sphere and Medium Data:
Dia.(um)	Num. Den.(in a vol. of 1mm^3)	Ref. Index of sphere (real | imag)
4.29781	2038	1.333	0	1
4.55047	4794	1.333	0	1
4.80313	10260	1.333	0	1
5.05578	20227	1.333	0	1
5.30844	37102	1.333	0	1
5.56109	63857	1.333	0	1
5.81375	103874	1.333	0	1
6.0664	160679	1.333	0	1
6.31906	237611	1.333	0	1
6.57171	337453	1.333	0	1
6.82437	462092	1.333	0	1
7.07702	612244	1.333	0	1
7.32968	787277	1.333	0	1
7.58233	985164	1.333	0	1
7.83499	1.20256e+06	1.333	0	1
8.08764	1.43496e+06	1.333	0	1
8.3403	1.677e+06	1.333	0	1
8.59295	1.92274e+06	1.333	0	1
8.84561	2.16604e+06	1.333	0	1
9.09826	2.40085e+06	1.333	0	1
9.35092	2.6215e+06	1.333	0	1
9.60357	2.823e+06	1.333	0	1
9.85623	3.00116e+06	1.333	0	1
10.1089	3.15271e+06	1.333	0	1
10.3615	3.27539e+06	1.333	0	1
10.6142	3.3679e+06	1.333	0	1
10.8668	3.42989e+06	1.333	0	1
11.1195	3.46182e+06	1.333	0	1
11.3722	3.46489e+06	1.333	0	1
11.6248	3.44092e+06	1.333	0	1
11.8775	3.39216e+06	1.333	0	1
12.1301	3.32121e+06	1.333	0	1
12.3828	3.23089e+06	1.333	0	1
12.6354	3.12411e+06	1.333	0	1
12.8881	3.00377e+06	1.333	0	1
13.1407	2.87273e+06	1.333	0	1
13.3934	2.73367e+06	1.333	0	1
13.6461	2.58911e+06	1.333	0	1
13.8987	2.44133e+06	1.333	0	1
14.1514	2.29239e+06	1.333	0	1
14.404	2.14406e+06	1.333	0	1
14.6567	1.99789e+06	1.333	0	1
14.9093	1.85517e+06	1.333	0	1
15.162	1.71694e+06	1.333	0	1
15.4146	1.58406e+06	1.333	0	1
15.6673	1.45715e+06	1.333	0	1
15.92	1.33666e+06	1.333	0	1
16.1726	1.22291e+06	1.333	0	1
16.4253	1.11605e+06	1.333	0	1
16.6779	1.01613e+06	1.333	0	1
16.9306	923083	1.333	0	1
17.1832	836788	1.333	0	1
17.4359	757044	1.333	0	1
17.6885	683602	1.333	0	1
17.9412	616179	1.333	0	1
18.1938	554463	1.333	0	1
18.4465	498126	1.333	0	1
18.6992	446832	1.333	0	1
18.9518	400241	1.333	0	1
19.2045	358020	1.333	0	1
19.4571	319837	1.333	0	1
19.7098	285377	1.333	0	1
19.9624	254335	1.333	0	1
20.2151	226420	1.333	0	1
20.4677	201360	1.333	0	1
20.7204	178897	1.333	0	1
20.9731	158792	1.333	0	1
21.2257	140822	1.333	0	1
21.4784	124782	1.333	0	1
21.731	110482	1.333	0	1
21.9837	97749	1.333	0	1
22.2363	86422	1.333	0	1
22.489	76357	1.333	0	1
22.7416	67422	1.333	0	1
22.9943	59497	1.333	0	1
23.247	52475	1.333	0	1
23.4996	46258	1.333	0	1
23.7523	40757	1.333	0	1
24.0049	35893	1.333	0	1
24.2576	31597	1.333	0	1
24.5102	27803	1.333	0	1
24.7629	24456	1.333	0	1
25.0155	21504	1.333	0	1
25.2682	18902	1.333	0	1
25.5208	16610	1.333	0	1
25.7735	14591	1.333	0	1
26.0262	12815	1.333	0	1
26.2788	11251	1.333	0	1
26.5315	9877	1.333	0	1
26.7841	8668	1.333	0	1
27.0368	7606	1.333	0	1
27.2894	6673	1.333	0	1
27.5421	5854	1.333	0	1
27.7947	5134	1.333	0	1
28.0474	4502	1.333	0	1
28.3001	3948	1.333	0	1
28.5527	3461	1.333	0	1
28.8054	3034	1.333	0	1
29.058	2660	1.333	0	1
29.3107	2332	1.333	0	1
29.5633	2044	1.333	0	1


Output:


Scattering Coefficient (us), g and Reduced Scattering Coefficient (us'):
WL(nm)	us(mm^-1)	g	us'(mm^-1)
390	26788.3	0.863337	3660.98
392.5	26768.5	0.863724	3647.9
395	26763.1	0.863975	3640.44
397.5	26758	0.864201	3633.7
400	26772.8	0.863812	3646.14
402.5	26772.2	0.863867	3644.57
405	26768.7	0.864	3640.55
407.5	26754.6	0.864493	3625.42
410	26776.9	0.863884	3644.77
412.5	26795	0.863374	3660.88
415	26746.4	0.864567	3622.34
417.5	26790.7	0.863611	3653.96
420	26776.2	0.864041	3640.46
422.5	26815.5	0.862899	3676.43
425	26824	0.862623	3685.02
427.5	26803.4	0.863382	3661.83
430	26846.9	0.861973	3705.59
432.5	26818.7	0.863065	3672.44
435	26860.9	0.861294	3725.75
437.5	26835.1	0.862995	3676.56
440	26840.5	0.862327	3695.2
442.5	26839.8	0.862554	3689.04
445	26888.2	0.861025	3736.78
447.5	26836.1	0.862775	3682.58
450	26833.3	0.8628	3681.52
452.5	26871.6	0.861688	3716.65
455	26875.9	0.861593	3719.83
457.5	26861.9	0.862151	3702.88
460	26873.4	0.861697	3716.67
462.5	26866.8	0.862139	3703.88
465	26882.9	0.86133	3727.86
467.5	26903.5	0.86182	3717.53
470	26859.7	0.860168	3755.83
472.5	26929.1	0.863952	3663.64
475	26946.1	0.853264	3953.96
477.5	26855.3	0.869749	3497.92
480	26900.2	0.856223	3867.63
482.5	26925.5	0.862627	3698.84
485	27054.1	0.856457	3883.44
487.5	26985.7	0.858995	3805.11
490	26910	0.861352	3731.01
492.5	26939.8	0.860321	3762.92
495	26918.3	0.861148	3737.67
497.5	26937.6	0.86027	3764
500	26965.8	0.859745	3782.08
502.5	26947.7	0.860166	3768.21
505	26951.4	0.860166	3768.72
507.5	26969.4	0.859636	3785.53
510	26976	0.859448	3791.55
512.5	26971.3	0.85966	3785.15
515	26970.8	0.859752	3782.6
517.5	26979.2	0.859496	3790.7
520	27001.3	0.858832	3811.71
522.5	26990	0.859286	3797.87
525	26983.6	0.859524	3790.56
527.5	27002	0.858939	3808.94
530	26994.5	0.859264	3799.12
532.5	27028.1	0.858234	3831.65
535	26986.7	0.859562	3789.96
537.5	27027.2	0.858363	3828.06
540	27022.5	0.858559	3822.08
542.5	27033.9	0.858278	3831.31
545	27048	0.857874	3844.22
547.5	27063.5	0.857391	3859.49
550	27043.6	0.858048	3838.88
552.5	27032.4	0.858696	3819.78
555	27042.4	0.858212	3834.28
557.5	27028.1	0.858642	3820.63
560	27095	0.856627	3884.68
562.5	27050.1	0.85803	3840.3
565	27051.1	0.858088	3838.89
567.5	27103.9	0.856428	3891.36
570	27067.7	0.85766	3852.81
572.5	27073	0.857551	3856.53
575	27081.1	0.857306	3864.32
577.5	27081.4	0.857369	3862.63
580	27156	0.855136	3933.93
582.5	27175.7	0.854103	3964.85
585	27086.5	0.857201	3867.93
587.5	27093.7	0.857068	3872.57
590	27104.4	0.856742	3882.92
592.5	27161.7	0.855084	3936.18
595	27119.1	0.856437	3893.3
597.5	27119.7	0.856476	3892.32
600	27112.2	0.856702	3885.13
602.5	27126.7	0.856312	3897.79
605	27118.5	0.856637	3887.8
607.5	27144.2	0.855931	3910.65
610	27141.8	0.856021	3907.86
612.5	27133.9	0.856192	3902.07
615	27133.2	0.856313	3898.69
617.5	27156.7	0.855675	3919.4
620	27153.7	0.855818	3915.08
622.5	27171.7	0.855199	3934.48
625	27173.6	0.855341	3930.91
627.5	27152.3	0.855911	3912.35
630	27170.6	0.855488	3926.48
632.5	27178	0.855063	3939.09
635	27212.7	0.854476	3960.11
637.5	27151.5	0.856421	3898.39
640	27205.6	0.854042	3970.87
642.5	27174.9	0.855737	3920.32
645	27232.4	0.854089	3973.5
647.5	27175.8	0.855075	3938.46
650	27304.2	0.851973	4041.76
652.5	27123.1	0.857077	3876.52
655	27300.9	0.851824	4045.35
657.5	27214.5	0.854402	3962.37
660	27283	0.852458	4025.4
662.5	27219.8	0.854545	3959.27
665	27257.8	0.853498	3993.33
667.5	27240.7	0.853812	3982.25
670	27237.7	0.853626	3986.88
672.5	27245.4	0.85355	3990.08
675	27242.3	0.854121	3974.07
677.5	27272.1	0.853343	3999.66
680	27261	0.853451	3995.08
682.5	27296.9	0.852197	4034.55
685	27269.9	0.852997	4008.77
687.5	27274.5	0.853096	4006.73
690	27270	0.853352	3999.1
692.5	27322.4	0.851784	4049.61
695	27305.3	0.852215	4035.31
697.5	27344.5	0.851082	4072.09
700	27275.7	0.853155	4005.3
702.5	27302.7	0.852423	4029.26
705	27285.5	0.853055	4009.46
707.5	27318.8	0.85206	4041.55
710	27332.1	0.851617	4055.61
712.5	27323.6	0.85206	4042.26
715	27307.7	0.852477	4028.51
717.5	27310.4	0.852571	4026.35
720	27317.9	0.852143	4039.16
722.5	27355.7	0.851094	4073.43
725	27381.3	0.849969	4108.05
727.5	27410.5	0.850337	4102.34
730	27290.8	0.85327	4004.38
732.5	27393.6	0.850133	4105.4
735	27276.4	0.853692	3990.76
737.5	27370.7	0.850827	4082.98
740	27356.5	0.85148	4062.98
742.5	27342.3	0.851819	4051.6
745	27367.4	0.851032	4076.86
747.5	27379	0.850644	4089.21
750	27381.4	0.850692	4088.26
752.5	27380.7	0.850924	4081.8
755	27382.4	0.851047	4078.68
757.5	27391	0.850619	4091.7
760	27365.2	0.851219	4071.41
762.5	27444.9	0.84877	4150.49
765	27380.1	0.85088	4082.92
767.5	27459.1	0.848643	4156.14
770	27387.1	0.850938	4082.37
772.5	27406.8	0.849992	4111.24
775	27421.3	0.849734	4120.5
777.5	27437.3	0.849354	4133.31
780	27404.6	0.850287	4102.81
782.5	27440.6	0.849455	4131.05
785	27402.5	0.850606	4093.77
787.5	27420	0.850041	4111.87
790	27463.2	0.8488	4152.42
792.5	27471	0.848614	4158.71
795	27446.2	0.84943	4132.57
797.5	27462.7	0.848874	4150.33
800	27446.5	0.84946	4131.81
802.5	27498.2	0.847906	4182.31
805	27469.3	0.848873	4151.35
807.5	27467.5	0.848978	4148.2
810	27483.8	0.848605	4160.9
812.5	27474.5	0.848882	4151.87
815	27428.4	0.850259	4107.15
817.5	27455	0.849445	4133.49
820	27456.1	0.849402	4134.84
822.5	27473.2	0.8489	4151.19
825	27493.7	0.848312	4170.47
827.5	27516.3	0.847653	4192.04
830	27508.8	0.847923	4183.47

Scattering (Csca), Extinction (Cext) and Backscattering (Cback) Cross Sections:
WL(nm)	Csca(um^2)	Cext(um^2)	Cback(um^2)
390	267.883	267.883	157.241
392.5	267.685	267.685	189.502
395	267.631	267.631	197.715
397.5	267.58	267.58	180.871
400	267.727	267.727	197.874
402.5	267.722	267.722	206.689
405	267.687	267.687	170.014
407.5	267.546	267.546	146.772
410	267.769	267.769	163.851
412.5	267.95	267.95	187.348
415	267.464	267.464	185.655
417.5	267.907	267.907	161.8
420	267.762	267.762	148.621
422.5	268.155	268.155	195.237
425	268.24	268.24	188.239
427.5	268.034	268.034	155.965
430	268.469	268.469	210.461
432.5	268.187	268.187	174.947
435	268.608	268.608	207.056
437.5	268.351	268.351	172.814
440	268.405	268.405	174.332
442.5	268.398	268.398	176.773
445	268.882	268.882	199.879
447.5	268.361	268.361	171.917
450	268.333	268.333	155.447
452.5	268.716	268.716	191.569
455	268.759	268.759	184.886
457.5	268.619	268.619	158.749
460	268.734	268.734	187.418
462.5	268.668	268.668	145.116
465	268.829	268.829	187.06
467.5	269.035	269.035	176.229
470	268.597	268.597	184.173
472.5	269.291	269.291	170.002
475	269.461	269.461	224.816
477.5	268.553	268.553	67.8076
480	269.002	269.002	270.177
482.5	269.255	269.255	153.011
485	270.541	270.541	247.469
487.5	269.857	269.857	170.182
490	269.1	269.1	129.792
492.5	269.398	269.398	202.865
495	269.183	269.183	159.01
497.5	269.376	269.376	227.149
500	269.658	269.658	130.699
502.5	269.477	269.477	150.2
505	269.514	269.514	176.463
507.5	269.694	269.694	182.687
510	269.76	269.76	161.749
512.5	269.713	269.713	164.589
515	269.708	269.708	168.997
517.5	269.792	269.792	166.77
520	270.013	270.013	189.037
522.5	269.9	269.9	205.951
525	269.836	269.836	131.535
527.5	270.02	270.02	201.248
530	269.945	269.945	160.734
532.5	270.281	270.281	189.399
535	269.867	269.867	144.845
537.5	270.272	270.272	198.015
540	270.225	270.225	179.468
542.5	270.339	270.339	182.882
545	270.48	270.48	193.903
547.5	270.635	270.635	197.764
550	270.436	270.436	178.905
552.5	270.324	270.324	164.58
555	270.424	270.424	174.723
557.5	270.281	270.281	136.994
560	270.95	270.95	209.792
562.5	270.501	270.501	148.164
565	270.511	270.511	173.636
567.5	271.039	271.039	229.165
570	270.677	270.677	170.592
572.5	270.73	270.73	171.41
575	270.811	270.811	154.919
577.5	270.814	270.814	168.812
580	271.56	271.56	200.858
582.5	271.757	271.757	215.919
585	270.865	270.865	161.217
587.5	270.937	270.937	172.381
590	271.044	271.044	171.769
592.5	271.617	271.617	213.19
595	271.191	271.191	175.558
597.5	271.197	271.197	159.888
600	271.122	271.122	143.838
602.5	271.267	271.267	171.508
605	271.185	271.185	168.958
607.5	271.442	271.442	185.772
610	271.418	271.418	171.122
612.5	271.339	271.339	163.608
615	271.332	271.332	168.57
617.5	271.567	271.567	164.97
620	271.537	271.537	172.519
622.5	271.717	271.717	161.214
625	271.736	271.736	181.735
627.5	271.523	271.523	170.186
630	271.706	271.706	164.091
632.5	271.78	271.78	181.108
635	272.127	272.127	177.145
637.5	271.515	271.515	154.876
640	272.056	272.056	202.95
642.5	271.749	271.749	156.208
645	272.324	272.324	191.26
647.5	271.758	271.758	157.29
650	273.042	273.042	166.22
652.5	271.231	271.231	185.885
655	273.009	273.009	226.33
657.5	272.145	272.145	169.074
660	272.83	272.83	276.79
662.5	272.198	272.198	168.209
665	272.578	272.578	187.847
667.5	272.407	272.407	168.355
670	272.377	272.377	156.636
672.5	272.454	272.454	209.872
675	272.423	272.423	171.516
677.5	272.721	272.721	195.927
680	272.61	272.61	170.651
682.5	272.969	272.969	196.446
685	272.699	272.699	177.679
687.5	272.745	272.745	189.244
690	272.7	272.7	170.79
692.5	273.224	273.224	214.772
695	273.053	273.053	173.032
697.5	273.445	273.445	178.285
700	272.757	272.757	163.278
702.5	273.027	273.027	202.727
705	272.855	272.855	175.658
707.5	273.188	273.188	171.495
710	273.321	273.321	176.415
712.5	273.236	273.236	183.863
715	273.077	273.077	167.644
717.5	273.104	273.104	175.452
720	273.179	273.179	187.941
722.5	273.557	273.557	201.596
725	273.813	273.813	187.484
727.5	274.105	274.105	169.285
730	272.908	272.908	179.856
732.5	273.936	273.936	231.868
735	272.764	272.764	134.502
737.5	273.707	273.707	186.027
740	273.565	273.565	162.535
742.5	273.423	273.423	167.408
745	273.674	273.674	191.311
747.5	273.79	273.79	209.702
750	273.814	273.814	157.283
752.5	273.807	273.807	176.717
755	273.824	273.824	175.152
757.5	273.91	273.91	164.576
760	273.652	273.652	173.582
762.5	274.449	274.449	222.245
765	273.801	273.801	172.35
767.5	274.591	274.591	212.258
770	273.871	273.871	166.56
772.5	274.068	274.068	171.535
775	274.213	274.213	186.599
777.5	274.373	274.373	171.87
780	274.045	274.045	151.755
782.5	274.406	274.406	189.189
785	274.025	274.025	157.335
787.5	274.2	274.2	162.966
790	274.632	274.632	182.21
792.5	274.71	274.71	170.49
795	274.462	274.462	182.015
797.5	274.627	274.627	199.123
800	274.465	274.465	178.708
802.5	274.982	274.982	185.369
805	274.692	274.692	179.532
807.5	274.675	274.675	174.365
810	274.838	274.838	178.432
812.5	274.744	274.744	176.309
815	274.284	274.284	155.545
817.5	274.55	274.55	170.711
820	274.561	274.561	161.896
822.5	274.732	274.732	175.991
825	274.937	274.937	170.03
827.5	275.163	275.163	177.524
830	275.088	275.088	175.433

Forward and Backward Scattering percentages:
WL(nm)	Forward %	Backward %
390	96.3586	3.6414
392.5	96.3706	3.62938
395	96.3723	3.62772
397.5	96.3801	3.61987
400	96.367	3.633
402.5	96.3642	3.63584
405	96.3788	3.62122
407.5	96.3948	3.6052
410	96.3693	3.63072
412.5	96.3497	3.65028
415	96.3976	3.60235
417.5	96.3836	3.61635
420	96.3753	3.62472
422.5	96.3332	3.66679
425	96.3204	3.67957
427.5	96.356	3.64396
430	96.3079	3.69213
432.5	96.3286	3.6714
435	96.2625	3.73746
437.5	96.3671	3.63287
440	96.3245	3.67545
442.5	96.3223	3.67771
445	96.2712	3.72884
447.5	96.3333	3.66669
450	96.3445	3.65555
452.5	96.3028	3.69722
455	96.2877	3.71225
457.5	96.315	3.68502
460	96.3004	3.69958
462.5	96.322	3.67799
465	96.2832	3.71681
467.5	96.3018	3.69824
470	96.2479	3.75213
472.5	96.3646	3.63543
475	95.9631	4.03692
477.5	96.614	3.38602
480	96.2051	3.79489
482.5	96.2485	3.75148
485	96.1265	3.87354
487.5	96.2046	3.79542
490	96.2804	3.7196
492.5	96.2479	3.75206
495	96.2777	3.72232
497.5	96.2426	3.75736
500	96.2291	3.77094
502.5	96.2467	3.75327
505	96.2481	3.75187
507.5	96.225	3.775
510	96.2287	3.77131
512.5	96.2238	3.77615
515	96.2443	3.7557
517.5	96.2188	3.7812
520	96.1987	3.80128
522.5	96.1947	3.80534
525	96.2307	3.76932
527.5	96.2009	3.79911
530	96.2146	3.78541
532.5	96.1909	3.80905
535	96.2354	3.76456
537.5	96.1815	3.8185
540	96.195	3.80499
542.5	96.1861	3.81387
545	96.1594	3.84056
547.5	96.16	3.83999
550	96.1718	3.82815
552.5	96.1847	3.81532
555	96.1867	3.81333
557.5	96.1987	3.80134
560	96.1256	3.87436
562.5	96.1746	3.82545
565	96.1676	3.83239
567.5	96.1134	3.88657
570	96.1533	3.8467
572.5	96.1584	3.84159
575	96.15	3.85001
577.5	96.1579	3.84215
580	96.0789	3.92111
582.5	96.0498	3.95024
585	96.1547	3.84531
587.5	96.1252	3.87483
590	96.1427	3.85735
592.5	96.0812	3.91882
595	96.1116	3.88844
597.5	96.1188	3.88119
600	96.1334	3.86656
602.5	96.1014	3.89861
605	96.1282	3.87181
607.5	96.1025	3.89746
610	96.1198	3.88021
612.5	96.1204	3.87963
615	96.1134	3.88663
617.5	96.0922	3.90784
620	96.1018	3.89825
622.5	96.08	3.91998
625	96.0702	3.92981
627.5	96.1118	3.88822
630	96.0833	3.91669
632.5	96.0631	3.9369
635	96.0556	3.94438
637.5	96.1443	3.85569
640	96.0451	3.95491
642.5	96.0913	3.90866
645	96.0461	3.95386
647.5	96.0383	3.96173
650	95.9603	4.03972
652.5	96.1307	3.86928
655	95.9955	4.00453
657.5	96.0383	3.96175
660	95.9755	4.02447
662.5	96.0607	3.93927
665	96.0148	3.98517
667.5	96.0292	3.97077
670	96.026	3.97397
672.5	96.0134	3.98661
675	96.0473	3.95266
677.5	96.0223	3.97773
680	96.0099	3.99007
682.5	95.9738	4.02621
685	96.0063	3.99366
687.5	96.0054	3.99457
690	96.0169	3.98306
692.5	95.9543	4.04573
695	95.9784	4.02157
697.5	95.9309	4.06912
700	96.0225	3.9775
702.5	95.9685	4.0315
705	95.9998	4.00021
707.5	95.9593	4.04069
710	95.9558	4.04415
712.5	95.9564	4.04355
715	95.9988	4.0012
717.5	95.9886	4.0114
720	95.9917	4.00832
722.5	95.9116	4.08841
725	95.8534	4.14663
727.5	95.8822	4.11776
730	96.0047	3.99525
732.5	95.9362	4.06377
735	96.0484	3.9516
737.5	95.9285	4.07147
740	95.9513	4.04875
742.5	95.9732	4.02684
745	95.9389	4.06112
747.5	95.9074	4.09263
750	95.9149	4.08514
752.5	95.9274	4.07259
755	95.9343	4.06567
757.5	95.922	4.078
760	95.9525	4.04755
762.5	95.8437	4.15632
765	95.9322	4.06781
767.5	95.8397	4.1603
770	95.93	4.06996
772.5	95.9002	4.09978
775	95.893	4.107
777.5	95.8573	4.14267
780	95.9261	4.07392
782.5	95.8954	4.10464
785	95.9224	4.07759
787.5	95.9131	4.08685
790	95.8406	4.15942
792.5	95.8441	4.15587
795	95.8777	4.12228
797.5	95.8615	4.1385
800	95.8817	4.11834
802.5	95.8396	4.16039
805	95.8596	4.14037
807.5	95.8845	4.11546
810	95.8576	4.14239
812.5	95.8455	4.15453
815	95.932	4.06802
817.5	95.8712	4.12884
820	95.8953	4.10474
822.5	95.868	4.132
825	95.8582	4.14178
827.5	95.8184	4.18162
830	95.8296	4.17042

