Simulation parameters:

Distribution: Poly Disperse - Log Normal 
Number of discrete sphere sizes: 101
Mean diameter of spheres: 7 um
Std. deviation: 0.25 um
Total Concentration (Spheres in a volume of 1mm^3): 1e+08

Wavelength Range: 390nm to 830nm in 2.5nm steps

Sphere and Medium Data:
Dia.(um)	Num. Den.(in a vol. of 1mm^3)	Ref. Index of sphere (real | imag)
2.50706	2038	1.333	0	1
2.65444	4794	1.333	0	1
2.80182	10260	1.333	0	1
2.94921	20227	1.333	0	1
3.09659	37102	1.333	0	1
3.24397	63857	1.333	0	1
3.39135	103874	1.333	0	1
3.53873	160679	1.333	0	1
3.68612	237611	1.333	0	1
3.8335	337453	1.333	0	1
3.98088	462092	1.333	0	1
4.12826	612244	1.333	0	1
4.27564	787277	1.333	0	1
4.42303	985164	1.333	0	1
4.57041	1.20256e+06	1.333	0	1
4.71779	1.43496e+06	1.333	0	1
4.86517	1.677e+06	1.333	0	1
5.01256	1.92274e+06	1.333	0	1
5.15994	2.16604e+06	1.333	0	1
5.30732	2.40085e+06	1.333	0	1
5.4547	2.6215e+06	1.333	0	1
5.60208	2.823e+06	1.333	0	1
5.74947	3.00116e+06	1.333	0	1
5.89685	3.15271e+06	1.333	0	1
6.04423	3.27539e+06	1.333	0	1
6.19161	3.3679e+06	1.333	0	1
6.33899	3.42989e+06	1.333	0	1
6.48638	3.46182e+06	1.333	0	1
6.63376	3.46489e+06	1.333	0	1
6.78114	3.44092e+06	1.333	0	1
6.92852	3.39216e+06	1.333	0	1
7.07591	3.32121e+06	1.333	0	1
7.22329	3.23089e+06	1.333	0	1
7.37067	3.12411e+06	1.333	0	1
7.51805	3.00377e+06	1.333	0	1
7.66543	2.87273e+06	1.333	0	1
7.81282	2.73367e+06	1.333	0	1
7.9602	2.58911e+06	1.333	0	1
8.10758	2.44133e+06	1.333	0	1
8.25496	2.29239e+06	1.333	0	1
8.40235	2.14406e+06	1.333	0	1
8.54973	1.99789e+06	1.333	0	1
8.69711	1.85517e+06	1.333	0	1
8.84449	1.71694e+06	1.333	0	1
8.99187	1.58406e+06	1.333	0	1
9.13926	1.45715e+06	1.333	0	1
9.28664	1.33666e+06	1.333	0	1
9.43402	1.22291e+06	1.333	0	1
9.5814	1.11605e+06	1.333	0	1
9.72878	1.01613e+06	1.333	0	1
9.87617	923083	1.333	0	1
10.0235	836788	1.333	0	1
10.1709	757044	1.333	0	1
10.3183	683602	1.333	0	1
10.4657	616179	1.333	0	1
10.6131	554463	1.333	0	1
10.7605	498126	1.333	0	1
10.9078	446832	1.333	0	1
11.0552	400241	1.333	0	1
11.2026	358020	1.333	0	1
11.35	319837	1.333	0	1
11.4974	285377	1.333	0	1
11.6448	254335	1.333	0	1
11.7921	226420	1.333	0	1
11.9395	201360	1.333	0	1
12.0869	178897	1.333	0	1
12.2343	158792	1.333	0	1
12.3817	140822	1.333	0	1
12.529	124782	1.333	0	1
12.6764	110482	1.333	0	1
12.8238	97749	1.333	0	1
12.9712	86422	1.333	0	1
13.1186	76357	1.333	0	1
13.266	67422	1.333	0	1
13.4133	59497	1.333	0	1
13.5607	52475	1.333	0	1
13.7081	46258	1.333	0	1
13.8555	40757	1.333	0	1
14.0029	35893	1.333	0	1
14.1502	31597	1.333	0	1
14.2976	27803	1.333	0	1
14.445	24456	1.333	0	1
14.5924	21504	1.333	0	1
14.7398	18902	1.333	0	1
14.8872	16610	1.333	0	1
15.0345	14591	1.333	0	1
15.1819	12815	1.333	0	1
15.3293	11251	1.333	0	1
15.4767	9877	1.333	0	1
15.6241	8668	1.333	0	1
15.7715	7606	1.333	0	1
15.9188	6673	1.333	0	1
16.0662	5854	1.333	0	1
16.2136	5134	1.333	0	1
16.361	4502	1.333	0	1
16.5084	3948	1.333	0	1
16.6557	3461	1.333	0	1
16.8031	3034	1.333	0	1
16.9505	2660	1.333	0	1
17.0979	2332	1.333	0	1
17.2453	2044	1.333	0	1


Output:


Scattering Coefficient (us), g and Reduced Scattering Coefficient (us'):
WL(nm)	us(mm^-1)	g	us'(mm^-1)
390	9273.24	0.853303	1360.36
392.5	9280.86	0.852699	1367.08
395	9275.44	0.853814	1355.94
397.5	9280.96	0.852895	1365.28
400	9280.49	0.853012	1364.12
402.5	9279.38	0.853352	1360.8
405	9293.01	0.852256	1372.99
407.5	9270.97	0.854185	1351.84
410	9280.43	0.853364	1360.85
412.5	9286.72	0.85285	1366.54
415	9299.93	0.85178	1378.44
417.5	9298.72	0.851906	1377.08
420	9295.69	0.852143	1374.44
422.5	9318.84	0.850404	1394.06
425	9323.91	0.849227	1405.79
427.5	9317.78	0.850373	1394.19
430	9329.27	0.849476	1404.28
432.5	9310.92	0.851223	1385.26
435	9310.94	0.851143	1386
437.5	9317.29	0.850692	1391.14
440	9323.71	0.850484	1394.04
442.5	9320.22	0.850571	1392.71
445	9322.04	0.850302	1395.49
447.5	9331.33	0.849847	1401.13
450	9331.85	0.849995	1399.82
452.5	9321.19	0.850649	1392.13
455	9325.16	0.850287	1396.1
457.5	9336.19	0.849467	1405.4
460	9327.21	0.850468	1394.72
462.5	9341.98	0.849151	1409.23
465	9348.81	0.848539	1415.98
467.5	9351.14	0.84839	1417.73
470	9344.42	0.849036	1410.67
472.5	9352.13	0.848605	1415.86
475	9356.75	0.847978	1422.43
477.5	9377.61	0.846358	1440.79
480	9347.49	0.849047	1411.03
482.5	9358.26	0.848136	1421.18
485	9357.5	0.848382	1418.77
487.5	9356.34	0.848373	1418.67
490	9376.06	0.846659	1437.73
492.5	9375.94	0.846746	1436.9
495	9373.1	0.847017	1433.92
497.5	9380.79	0.846541	1439.57
500	9365.17	0.84817	1421.91
502.5	9390.87	0.845588	1450.06
505	9385.37	0.845731	1447.87
507.5	9380.41	0.846967	1435.51
510	9381.28	0.847433	1431.27
512.5	9380.75	0.846391	1440.96
515	9397.75	0.84477	1458.81
517.5	9393.12	0.846152	1445.11
520	9400.6	0.845595	1451.5
522.5	9400.11	0.845196	1455.17
525	9407.42	0.844249	1465.22
527.5	9409.18	0.84448	1463.32
530	9405.61	0.845707	1451.22
532.5	9413.93	0.845069	1458.51
535	9418.39	0.843424	1474.7
537.5	9405.66	0.843578	1471.25
540	9395.27	0.845241	1454
542.5	9401.65	0.846702	1441.25
545	9411.5	0.847902	1431.47
547.5	9455.7	0.843031	1484.25
550	9461.99	0.836247	1549.43
552.5	9356.59	0.84148	1483.2
555	9312.75	0.85775	1324.74
557.5	9485.57	0.850342	1419.59
560	9570.89	0.829277	1633.97
562.5	9419.24	0.83565	1548.05
565	9305.81	0.852939	1368.53
567.5	9397.55	0.85078	1402.3
570	9503.85	0.838747	1532.53
572.5	9440.9	0.843341	1479
575	9432.04	0.842725	1483.42
577.5	9463.16	0.840128	1512.89
580	9415.86	0.844605	1463.18
582.5	9439.76	0.843132	1480.79
585	9488.91	0.839431	1523.62
587.5	9447.61	0.842835	1484.83
590	9455.92	0.841715	1496.73
592.5	9461.05	0.841235	1502.09
595	9457.07	0.841765	1496.44
597.5	9463.88	0.841328	1501.65
600	9465.45	0.841281	1502.35
602.5	9464.3	0.841409	1500.95
605	9468.55	0.841053	1505
607.5	9471.07	0.840887	1506.97
610	9472.75	0.840804	1508.03
612.5	9472.15	0.840924	1506.79
615	9475.03	0.840735	1509.04
617.5	9477.54	0.840574	1510.97
620	9476.87	0.840676	1509.89
622.5	9488.32	0.839763	1520.38
625	9484.52	0.840182	1515.79
627.5	9484.09	0.840244	1515.14
630	9487.29	0.840019	1517.78
632.5	9494.3	0.839423	1524.57
635	9499.63	0.839042	1529.04
637.5	9500.98	0.839008	1529.59
640	9498.41	0.839285	1526.54
642.5	9497.37	0.839475	1524.56
645	9503	0.838989	1530.09
647.5	9505.38	0.838916	1531.16
650	9506.27	0.838798	1532.43
652.5	9506.51	0.838828	1532.18
655	9515.43	0.838124	1540.32
657.5	9524.51	0.83743	1548.4
660	9514.83	0.83827	1538.84
662.5	9527.5	0.837189	1551.18
665	9522.75	0.837773	1544.84
667.5	9520.45	0.838058	1541.76
670	9534.79	0.836885	1555.26
672.5	9512.02	0.838904	1532.35
675	9517.04	0.838509	1536.92
677.5	9532.93	0.837149	1552.45
680	9526.28	0.837738	1545.75
682.5	9539.22	0.83668	1557.94
685	9544.1	0.836444	1560.99
687.5	9533.07	0.837486	1549.25
690	9544.42	0.836417	1561.31
692.5	9568.88	0.83442	1584.41
695	9542.8	0.836905	1556.38
697.5	9529.32	0.838013	1543.62
700	9539.43	0.837139	1553.6
702.5	9544.69	0.836837	1557.34
705	9546.22	0.836756	1558.36
707.5	9551.9	0.836372	1562.96
710	9548.78	0.836474	1561.48
712.5	9555.16	0.836233	1564.82
715	9557.22	0.835858	1568.74
717.5	9573.4	0.834758	1581.93
720	9550.51	0.836701	1559.58
722.5	9565.96	0.835557	1573.06
725	9584.11	0.834018	1590.79
727.5	9570.95	0.835153	1577.74
730	9566.75	0.835596	1572.82
732.5	9575.57	0.834884	1581.08
735	9580.52	0.834541	1585.18
737.5	9606.65	0.832303	1611.01
740	9596.48	0.8333	1599.73
742.5	9591.71	0.833692	1595.18
745	9594.04	0.833757	1594.94
747.5	9599.71	0.833076	1602.42
750	9593.06	0.833813	1594.24
752.5	9592.32	0.834017	1592.16
755	9578.89	0.835122	1579.34
757.5	9626.52	0.831114	1625.78
760	9578.34	0.835297	1577.58
762.5	9616.87	0.832251	1613.22
765	9598.41	0.833434	1598.77
767.5	9576.27	0.835916	1571.31
770	9632.36	0.830693	1630.83
772.5	9572.9	0.836075	1569.24
775	9649.9	0.829547	1644.86
777.5	9587.28	0.834915	1582.72
780	9633.16	0.831121	1626.84
782.5	9603.28	0.833686	1597.16
785	9617.8	0.832565	1610.35
787.5	9622.91	0.832113	1615.56
790	9630.57	0.83152	1622.56
792.5	9615.42	0.832904	1606.7
795	9624.96	0.832084	1616.19
797.5	9636.24	0.831291	1625.72
800	9626.64	0.832193	1615.41
802.5	9646.29	0.830351	1636.48
805	9647.94	0.830473	1635.59
807.5	9626.13	0.83241	1613.25
810	9625.13	0.832437	1612.81
812.5	9662.67	0.829318	1649.25
815	9639.06	0.831423	1624.93
817.5	9641.63	0.831212	1627.39
820	9647.04	0.830827	1632.02
822.5	9649.41	0.830668	1633.95
825	9641.37	0.831446	1625.09
827.5	9640.96	0.831439	1625.09
830	9643.57	0.831195	1627.88

Scattering (Csca), Extinction (Cext) and Backscattering (Cback) Cross Sections:
WL(nm)	Csca(um^2)	Cext(um^2)	Cback(um^2)
390	92.7324	92.7324	68.7776
392.5	92.8086	92.8086	75.7501
395	92.7544	92.7544	62.7427
397.5	92.8096	92.8096	57.6487
400	92.8049	92.8049	65.5817
402.5	92.7938	92.7938	58.1159
405	92.9301	92.9301	63.9732
407.5	92.7097	92.7097	54.2854
410	92.8043	92.8043	53.1173
412.5	92.8672	92.8672	56.6936
415	92.9993	92.9993	58.0905
417.5	92.9872	92.9872	60.2857
420	92.9569	92.9569	63.952
422.5	93.1884	93.1884	62.1788
425	93.2391	93.2391	66.9814
427.5	93.1778	93.1778	78.0031
430	93.2927	93.2927	70.8934
432.5	93.1092	93.1092	57.1494
435	93.1094	93.1094	63.0844
437.5	93.1729	93.1729	53.5201
440	93.2371	93.2371	57.5664
442.5	93.2022	93.2022	59.6902
445	93.2204	93.2204	62.9656
447.5	93.3133	93.3133	62.6806
450	93.3185	93.3185	61.8225
452.5	93.2119	93.2119	56.6603
455	93.2516	93.2516	51.6388
457.5	93.3619	93.3619	60.3959
460	93.2721	93.2721	59.416
462.5	93.4198	93.4198	58.8585
465	93.4881	93.4881	69.4305
467.5	93.5114	93.5114	58.7575
470	93.4442	93.4442	58.2889
472.5	93.5212	93.5212	60.7165
475	93.5675	93.5675	63.2818
477.5	93.7761	93.7761	78.0439
480	93.4749	93.4749	54.9455
482.5	93.5826	93.5826	60.4168
485	93.575	93.575	58.7736
487.5	93.5634	93.5634	61.6828
490	93.7606	93.7606	68.6851
492.5	93.7594	93.7594	69.369
495	93.731	93.731	64.8485
497.5	93.8079	93.8079	63.9342
500	93.6517	93.6517	61.2629
502.5	93.9087	93.9087	59.1911
505	93.8537	93.8537	67.9016
507.5	93.804	93.804	55.7535
510	93.8128	93.8128	61.8492
512.5	93.8075	93.8075	59.033
515	93.9775	93.9775	67.3737
517.5	93.9312	93.9312	61.3766
520	94.006	94.006	68.4832
522.5	94.0011	94.0011	64.6887
525	94.0742	94.0742	62.2981
527.5	94.0918	94.0918	71.1992
530	94.0561	94.0561	60.3408
532.5	94.1393	94.1393	59.3159
535	94.1839	94.1839	61.3796
537.5	94.0566	94.0566	70.0831
540	93.9527	93.9527	61.7772
542.5	94.0165	94.0165	52.6091
545	94.1149	94.1149	53.2504
547.5	94.557	94.557	62.8123
550	94.6199	94.6199	77.1872
552.5	93.5659	93.5659	67.5462
555	93.1275	93.1275	30.5434
557.5	94.8557	94.8557	35.8723
560	95.7089	95.7089	111.31
562.5	94.1924	94.1924	82.5367
565	93.0581	93.0581	25.1707
567.5	93.9755	93.9755	39.9171
570	95.0385	95.0385	74.619
572.5	94.409	94.409	95.1249
575	94.3204	94.3204	50.6544
577.5	94.6316	94.6316	35.4768
580	94.1586	94.1586	40.9601
582.5	94.3976	94.3976	88.3449
585	94.8891	94.8891	99.3898
587.5	94.4761	94.4761	37.082
590	94.5592	94.5592	44.0947
592.5	94.6105	94.6105	61.8321
595	94.5707	94.5707	73.5736
597.5	94.6388	94.6388	71.0328
600	94.6544	94.6544	53.7798
602.5	94.643	94.643	54.1325
605	94.6855	94.6855	64.9569
607.5	94.7107	94.7107	63.8293
610	94.7275	94.7275	59.4177
612.5	94.7215	94.7215	47.3522
615	94.7503	94.7503	62.5746
617.5	94.7754	94.7754	72.9317
620	94.7687	94.7687	60.1311
622.5	94.8832	94.8832	51.506
625	94.8451	94.8451	55.9602
627.5	94.8409	94.8409	61.5752
630	94.8729	94.8729	60.2673
632.5	94.943	94.943	62.0777
635	94.9963	94.9963	59.318
637.5	95.0098	95.0098	60.8837
640	94.9841	94.9841	60.1455
642.5	94.9737	94.9737	57.6199
645	95.03	95.03	58.1416
647.5	95.0538	95.0538	58.6927
650	95.0627	95.0627	62.8161
652.5	95.0651	95.0651	60.1192
655	95.1543	95.1543	59.4177
657.5	95.2451	95.2451	61.8487
660	95.1483	95.1483	59.7871
662.5	95.275	95.275	65.292
665	95.2275	95.2275	54.0889
667.5	95.2045	95.2045	57.1528
670	95.3479	95.3479	68.5578
672.5	95.1202	95.1202	54.0051
675	95.1704	95.1704	54.6384
677.5	95.3293	95.3293	64.0572
680	95.2628	95.2628	56.0666
682.5	95.3922	95.3922	62.4797
685	95.441	95.441	59.9575
687.5	95.3307	95.3307	57.5506
690	95.4442	95.4442	59.4131
692.5	95.6888	95.6888	65.4475
695	95.428	95.428	55.6526
697.5	95.2932	95.2932	52.1779
700	95.3943	95.3943	55.5391
702.5	95.4469	95.4469	57.7762
705	95.4622	95.4622	55.7704
707.5	95.519	95.519	56.0632
710	95.4878	95.4878	54.8158
712.5	95.5516	95.5516	53.0486
715	95.5722	95.5722	58.8228
717.5	95.734	95.734	57.5983
720	95.5051	95.5051	51.5549
722.5	95.6596	95.6596	60.6614
725	95.8411	95.8411	48.9288
727.5	95.7095	95.7095	64.3663
730	95.6675	95.6675	53.011
732.5	95.7557	95.7557	55.3138
735	95.8052	95.8052	60.7277
737.5	96.0665	96.0665	67.8426
740	95.9648	95.9648	61.1887
742.5	95.9171	95.9171	59.4594
745	95.9404	95.9404	60.3389
747.5	95.9971	95.9971	70.6967
750	95.9306	95.9306	58.926
752.5	95.9232	95.9232	57.727
755	95.7889	95.7889	48.0369
757.5	96.2652	96.2652	66.8103
760	95.7834	95.7834	57.0594
762.5	96.1687	96.1687	61.0454
765	95.9841	95.9841	58.4531
767.5	95.7627	95.7627	51.458
770	96.3236	96.3236	63.9104
772.5	95.729	95.729	48.3086
775	96.499	96.499	72.0716
777.5	95.8728	95.8728	48.6271
780	96.3316	96.3316	65.7658
782.5	96.0328	96.0328	52.7186
785	96.178	96.178	56.9104
787.5	96.2291	96.2291	62.6976
790	96.3057	96.3057	59.3892
792.5	96.1542	96.1542	59.122
795	96.2496	96.2496	53.259
797.5	96.3624	96.3624	56.2468
800	96.2664	96.2664	60.9628
802.5	96.4629	96.4629	61.8169
805	96.4794	96.4794	57.8168
807.5	96.2613	96.2613	52.7106
810	96.2513	96.2513	53.8675
812.5	96.6267	96.6267	73.0589
815	96.3906	96.3906	57.4223
817.5	96.4162	96.4162	54.4262
820	96.4704	96.4704	54.9679
822.5	96.4941	96.4941	57.0952
825	96.4137	96.4137	56.0945
827.5	96.4095	96.4095	53.7044
830	96.4357	96.4357	56.3485

Forward and Backward Scattering percentages:
WL(nm)	Forward %	Backward %
390	96.0091	3.99093
392.5	95.9749	4.02515
395	96.0346	3.9654
397.5	95.9958	4.00421
400	95.9922	4.00777
402.5	96.0169	3.98306
405	95.9768	4.02319
407.5	96.0559	3.94412
410	96.0158	3.98423
412.5	96.0082	3.99183
415	95.9713	4.02873
417.5	95.9756	4.02439
420	95.9917	4.00832
422.5	95.9426	4.0574
425	95.8969	4.10314
427.5	95.9495	4.05055
430	95.8835	4.11652
432.5	95.9429	4.05706
435	95.9481	4.05189
437.5	95.9149	4.08514
440	95.9237	4.0763
442.5	95.9161	4.08392
445	95.9038	4.0962
447.5	95.8938	4.10622
450	95.9154	4.08464
452.5	95.9401	4.05995
455	95.9261	4.07392
457.5	95.8852	4.11477
460	95.9199	4.08005
462.5	95.8695	4.13048
465	95.841	4.15903
467.5	95.8478	4.15221
470	95.8748	4.12521
472.5	95.8576	4.14239
475	95.8267	4.1733
477.5	95.758	4.24202
480	95.866	4.13402
482.5	95.8331	4.16694
485	95.8502	4.14979
487.5	95.8518	4.14823
490	95.7909	4.20905
492.5	95.7851	4.21488
495	95.8014	4.19859
497.5	95.7815	4.21852
500	95.8386	4.16144
502.5	95.7511	4.24888
505	95.7659	4.23411
507.5	95.7728	4.22723
510	95.8312	4.16876
512.5	95.7871	4.21286
515	95.6992	4.30076
517.5	95.77	4.23004
520	95.7411	4.2589
522.5	95.7294	4.27064
525	95.7099	4.29014
527.5	95.717	4.28298
530	95.7687	4.23128
532.5	95.745	4.255
535	95.7002	4.29984
537.5	95.6921	4.30789
540	95.7327	4.26725
542.5	95.7296	4.27036
545	95.8238	4.17616
547.5	95.7819	4.21806
550	95.4692	4.53081
552.5	95.4446	4.55542
555	96.2518	3.74823
557.5	96.004	3.99598
560	95.0069	4.99308
562.5	95.5745	4.42546
565	96.1011	3.89889
567.5	95.931	4.06903
570	95.4465	4.55353
572.5	95.685	4.31502
575	95.6906	4.30936
577.5	95.6675	4.33247
580	95.7159	4.28406
582.5	95.6202	4.37977
585	95.5666	4.43343
587.5	95.667	4.33302
590	95.5994	4.40059
592.5	95.6193	4.38068
595	95.6168	4.38325
597.5	95.6082	4.39176
600	95.6057	4.39434
602.5	95.589	4.41102
605	95.599	4.40099
607.5	95.631	4.36899
610	95.5888	4.41123
612.5	95.5608	4.43923
615	95.5795	4.42052
617.5	95.5942	4.40577
620	95.5883	4.41169
622.5	95.5552	4.44481
625	95.5674	4.43261
627.5	95.5604	4.43957
630	95.5691	4.43088
632.5	95.5354	4.46459
635	95.5401	4.45986
637.5	95.5191	4.48086
640	95.536	4.46402
642.5	95.5321	4.46791
645	95.5155	4.48452
647.5	95.5367	4.46328
650	95.5169	4.48307
652.5	95.5162	4.48381
655	95.4901	4.50985
657.5	95.4745	4.52545
660	95.4933	4.50667
662.5	95.4361	4.56392
665	95.4721	4.52789
667.5	95.4928	4.5072
670	95.4231	4.57692
672.5	95.5277	4.4723
675	95.5123	4.48768
677.5	95.4437	4.55634
680	95.4714	4.52857
682.5	95.4569	4.54306
685	95.4268	4.57324
687.5	95.45	4.54997
690	95.4171	4.58286
692.5	95.3857	4.61432
695	95.4503	4.54969
697.5	95.4905	4.50949
700	95.4614	4.53857
702.5	95.4433	4.55673
705	95.4485	4.5515
707.5	95.445	4.55496
710	95.4425	4.55749
712.5	95.4477	4.5523
715	95.4171	4.58294
717.5	95.3937	4.60634
720	95.4371	4.56291
722.5	95.4046	4.59539
725	95.3352	4.66476
727.5	95.3886	4.6114
730	95.4046	4.5954
732.5	95.3761	4.62391
735	95.3665	4.63354
737.5	95.267	4.73296
740	95.3269	4.67314
742.5	95.3335	4.66649
745	95.3387	4.66133
747.5	95.2909	4.70908
750	95.3262	4.67379
752.5	95.3422	4.65778
755	95.3967	4.60327
757.5	95.2179	4.7821
760	95.3838	4.61625
762.5	95.2815	4.71847
765	95.3027	4.69733
767.5	95.4012	4.59878
770	95.2247	4.77533
772.5	95.4155	4.58452
775	95.1701	4.82991
777.5	95.3908	4.60923
780	95.2348	4.76519
782.5	95.3497	4.65026
785	95.3026	4.69743
787.5	95.2671	4.73285
790	95.2619	4.73813
792.5	95.3023	4.69766
795	95.2663	4.7337
797.5	95.2392	4.76082
800	95.2881	4.71192
802.5	95.1877	4.8123
805	95.2255	4.77454
807.5	95.2949	4.70512
810	95.304	4.69602
812.5	95.1492	4.85079
815	95.267	4.73303
817.5	95.2549	4.7451
820	95.2362	4.76376
822.5	95.2082	4.79178
825	95.2562	4.74377
827.5	95.2802	4.71982
830	95.2619	4.73807

