Simulation parameters:

Distribution: Poly Disperse - Log Normal 
Number of discrete sphere sizes: 101
Mean diameter of spheres: 19 um
Std. deviation: 0.25 um
Total Concentration (Spheres in a volume of 1mm^3): 1e+08

Wavelength Range: 390nm to 830nm in 2.5nm steps

Sphere and Medium Data:
Dia.(um)	Num. Den.(in a vol. of 1mm^3)	Ref. Index of sphere (real | imag)
6.80487	2038	1.333	0	1
7.20491	4794	1.333	0	1
7.60495	10260	1.333	0	1
8.00499	20227	1.333	0	1
8.40502	37102	1.333	0	1
8.80506	63857	1.333	0	1
9.2051	103874	1.333	0	1
9.60513	160679	1.333	0	1
10.0052	237611	1.333	0	1
10.4052	337453	1.333	0	1
10.8052	462092	1.333	0	1
11.2053	612244	1.333	0	1
11.6053	787277	1.333	0	1
12.0054	985164	1.333	0	1
12.4054	1.20256e+06	1.333	0	1
12.8054	1.43496e+06	1.333	0	1
13.2055	1.677e+06	1.333	0	1
13.6055	1.92274e+06	1.333	0	1
14.0055	2.16604e+06	1.333	0	1
14.4056	2.40085e+06	1.333	0	1
14.8056	2.6215e+06	1.333	0	1
15.2057	2.823e+06	1.333	0	1
15.6057	3.00116e+06	1.333	0	1
16.0057	3.15271e+06	1.333	0	1
16.4058	3.27539e+06	1.333	0	1
16.8058	3.3679e+06	1.333	0	1
17.2058	3.42989e+06	1.333	0	1
17.6059	3.46182e+06	1.333	0	1
18.0059	3.46489e+06	1.333	0	1
18.406	3.44092e+06	1.333	0	1
18.806	3.39216e+06	1.333	0	1
19.206	3.32121e+06	1.333	0	1
19.6061	3.23089e+06	1.333	0	1
20.0061	3.12411e+06	1.333	0	1
20.4061	3.00377e+06	1.333	0	1
20.8062	2.87273e+06	1.333	0	1
21.2062	2.73367e+06	1.333	0	1
21.6063	2.58911e+06	1.333	0	1
22.0063	2.44133e+06	1.333	0	1
22.4063	2.29239e+06	1.333	0	1
22.8064	2.14406e+06	1.333	0	1
23.2064	1.99789e+06	1.333	0	1
23.6064	1.85517e+06	1.333	0	1
24.0065	1.71694e+06	1.333	0	1
24.4065	1.58406e+06	1.333	0	1
24.8066	1.45715e+06	1.333	0	1
25.2066	1.33666e+06	1.333	0	1
25.6066	1.22291e+06	1.333	0	1
26.0067	1.11605e+06	1.333	0	1
26.4067	1.01613e+06	1.333	0	1
26.8067	923083	1.333	0	1
27.2068	836788	1.333	0	1
27.6068	757044	1.333	0	1
28.0069	683602	1.333	0	1
28.4069	616179	1.333	0	1
28.8069	554463	1.333	0	1
29.207	498126	1.333	0	1
29.607	446832	1.333	0	1
30.007	400241	1.333	0	1
30.4071	358020	1.333	0	1
30.8071	319837	1.333	0	1
31.2071	285377	1.333	0	1
31.6072	254335	1.333	0	1
32.0072	226420	1.333	0	1
32.4073	201360	1.333	0	1
32.8073	178897	1.333	0	1
33.2073	158792	1.333	0	1
33.6074	140822	1.333	0	1
34.0074	124782	1.333	0	1
34.4074	110482	1.333	0	1
34.8075	97749	1.333	0	1
35.2075	86422	1.333	0	1
35.6076	76357	1.333	0	1
36.0076	67422	1.333	0	1
36.4076	59497	1.333	0	1
36.8077	52475	1.333	0	1
37.2077	46258	1.333	0	1
37.6077	40757	1.333	0	1
38.0078	35893	1.333	0	1
38.4078	31597	1.333	0	1
38.8079	27803	1.333	0	1
39.2079	24456	1.333	0	1
39.6079	21504	1.333	0	1
40.008	18902	1.333	0	1
40.408	16610	1.333	0	1
40.808	14591	1.333	0	1
41.2081	12815	1.333	0	1
41.6081	11251	1.333	0	1
42.0082	9877	1.333	0	1
42.4082	8668	1.333	0	1
42.8082	7606	1.333	0	1
43.2083	6673	1.333	0	1
43.6083	5854	1.333	0	1
44.0083	5134	1.333	0	1
44.4084	4502	1.333	0	1
44.8084	3948	1.333	0	1
45.2085	3461	1.333	0	1
45.6085	3034	1.333	0	1
46.0085	2660	1.333	0	1
46.4086	2332	1.333	0	1
46.8086	2044	1.333	0	1


Output:


Scattering Coefficient (us), g and Reduced Scattering Coefficient (us'):
WL(nm)	us(mm^-1)	g	us'(mm^-1)
390	66290	0.87082	8563.35
392.5	66303.9	0.870667	8575.28
395	66293.5	0.870874	8560.2
397.5	66320.5	0.870528	8586.63
400	66349.4	0.870194	8612.52
402.5	66352.2	0.870289	8606.6
405	66335.3	0.870486	8591.36
407.5	66351.3	0.870396	8599.39
410	66371.2	0.870113	8620.78
412.5	66392.2	0.869888	8638.42
415	66384.9	0.870001	8629.93
417.5	66335.6	0.870674	8578.9
420	66383.3	0.870106	8622.82
422.5	66388.3	0.870086	8624.8
425	66433.7	0.869528	8667.72
427.5	66472.8	0.869075	8702.98
430	66459.4	0.869272	8688.09
432.5	66401.8	0.870293	8612.8
435	66501.7	0.86883	8723
437.5	66464.1	0.869316	8685.81
440	66492.1	0.869048	8707.28
442.5	66500.1	0.869005	8711.18
445	66488.2	0.869176	8698.25
447.5	66483.5	0.869267	8691.56
450	66512.2	0.868935	8717.43
452.5	66525.7	0.868763	8730.62
455	66513.6	0.869023	8711.78
457.5	66537.5	0.868709	8735.77
460	66425.8	0.869677	8656.78
462.5	66575.6	0.868059	8784.06
465	66573	0.868494	8754.72
467.5	66547.8	0.868757	8733.95
470	66516	0.869353	8690.09
472.5	66593.1	0.868271	8772.22
475	66536.5	0.868926	8721.18
477.5	66604.5	0.868174	8780.2
480	66626.4	0.867997	8794.9
482.5	66610.5	0.868166	8781.52
485	66628.2	0.867962	8797.45
487.5	66589.7	0.868467	8758.73
490	66627.8	0.868049	8791.63
492.5	66640.4	0.867795	8810.18
495	66695.5	0.868074	8798.9
497.5	66735.5	0.867324	8854.19
500	66579.5	0.869643	8679.07
502.5	66728.7	0.863439	9112.56
505	66993.1	0.862233	9229.42
507.5	66663.2	0.86908	8727.57
510	66622.6	0.868151	8784.15
512.5	66673.7	0.867964	8803.3
515	66814.2	0.865886	8960.75
517.5	66649.6	0.86813	8789.1
520	66775.8	0.866603	8907.68
522.5	66732.7	0.867184	8863.16
525	66746.2	0.866997	8877.48
527.5	66754.8	0.867021	8876.99
530	66735.4	0.867359	8851.85
532.5	66769.6	0.866681	8901.64
535	66823.6	0.866349	8931.06
537.5	66796.3	0.86649	8917.98
540	66809.8	0.866493	8919.58
542.5	66804.4	0.866554	8914.81
545	66813.7	0.866501	8919.57
547.5	66834.9	0.866237	8940.05
550	66852.4	0.866053	8954.69
552.5	66838.6	0.866278	8937.8
555	66868.9	0.865757	8976.71
557.5	66828.9	0.86646	8924.33
560	66882.4	0.865823	8974.1
562.5	66859.5	0.866103	8952.27
565	66874.2	0.865984	8962.24
567.5	66871.1	0.86594	8964.75
570	66936.9	0.86524	9020.42
572.5	66920.9	0.865505	9000.53
575	66781.8	0.867025	8880.31
577.5	66889.9	0.865972	8965.15
580	66975.9	0.864879	9049.83
582.5	66982.2	0.864862	9051.81
585	66980.9	0.864923	9047.57
587.5	66939.6	0.865441	9007.33
590	66960.2	0.865212	9025.44
592.5	66954.9	0.865356	9015.09
595	66997.2	0.864775	9059.68
597.5	67010	0.864744	9063.51
600	66994.6	0.864922	9049.51
602.5	66971.2	0.865024	9039.48
605	66956.9	0.865111	9031.73
607.5	67039.9	0.864238	9101.48
610	67029.7	0.864613	9074.96
612.5	67068.5	0.864207	9107.42
615	67135.1	0.863416	9169.56
617.5	67156.7	0.863337	9177.86
620	67115.9	0.863761	9143.83
622.5	67067	0.864309	9100.4
625	67064.5	0.864358	9096.73
627.5	67104.3	0.863878	9134.35
630	67094.7	0.863999	9124.92
632.5	67074.6	0.86433	9099.98
635	67095.7	0.864067	9120.55
637.5	67104.2	0.864005	9125.87
640	67111.7	0.863993	9127.63
642.5	67135.4	0.863684	9151.59
645	67144.6	0.86356	9161.19
647.5	67110.6	0.864099	9120.39
650	67178	0.863228	9188.07
652.5	67201.8	0.862992	9207.18
655	67138.5	0.863694	9151.39
657.5	67025	0.865648	9004.94
660	67150.1	0.863808	9145.27
662.5	67151.3	0.863711	9151.99
665	67126.4	0.864041	9126.44
667.5	67180.4	0.863414	9175.89
670	67230.1	0.862863	9219.74
672.5	67193.6	0.863352	9181.9
675	67205.6	0.863213	9192.85
677.5	67317.5	0.861872	9298.4
680	67112.5	0.864486	9094.67
682.5	67277.9	0.862382	9258.65
685	67202	0.863482	9174.3
687.5	67234.7	0.862843	9221.72
690	67258.6	0.862525	9246.38
692.5	67273.4	0.863148	9206.52
695	67341	0.861222	9345.44
697.5	67290.5	0.862523	9250.86
700	67327.1	0.862078	9285.86
702.5	67293.4	0.862371	9261.51
705	67306.6	0.862249	9271.56
707.5	67336.2	0.862044	9289.42
710	67293.1	0.862546	9249.68
712.5	67269.6	0.8628	9229.37
715	67364.5	0.861668	9318.64
717.5	67381.6	0.861529	9330.4
720	67370.2	0.861665	9319.68
722.5	67370.1	0.86179	9311.22
725	67420.9	0.861116	9363.69
727.5	67358.9	0.861826	9307.22
730	67417.3	0.861216	9356.44
732.5	67387.8	0.861768	9315.14
735	67399.5	0.861413	9340.73
737.5	67400.4	0.861177	9356.73
740	67470.8	0.861399	9351.53
742.5	67435.9	0.861016	9372.51
745	67338	0.860306	9406.7
747.5	67481	0.863524	9209.53
750	67633.1	0.859953	9471.81
752.5	67403.2	0.85488	9781.55
755	67066.2	0.871029	8649.61
757.5	67902.9	0.858074	9637.18
760	67437.2	0.856223	9695.93
762.5	67236.4	0.865336	9054.33
765	67506.7	0.861998	9316.03
767.5	67555.7	0.860246	9441.21
770	67334.9	0.862099	9285.56
772.5	67784.4	0.857114	9685.47
775	67671.5	0.858885	9549.49
777.5	67556.8	0.860019	9456.65
780	67703.5	0.858177	9601.93
782.5	67535.9	0.860359	9430.78
785	67576.8	0.859968	9462.92
787.5	67529.3	0.860294	9434.22
790	67590.8	0.85972	9481.61
792.5	67570.7	0.860145	9450.07
795	67558.6	0.860157	9447.59
797.5	67629.6	0.859268	9517.63
800	67564	0.860199	9445.5
802.5	67629.3	0.859415	9507.7
805	67603.5	0.859748	9481.5
807.5	67627.4	0.859448	9505.19
810	67599.4	0.859825	9475.74
812.5	67667.3	0.859005	9540.76
815	67640	0.859361	9512.84
817.5	67641.9	0.859412	9509.64
820	67661.7	0.859197	9526.96
822.5	67643.5	0.859439	9508.06
825	67672.4	0.859073	9536.89
827.5	67682.2	0.859043	9540.28
830	67665.5	0.859267	9522.78

Scattering (Csca), Extinction (Cext) and Backscattering (Cback) Cross Sections:
WL(nm)	Csca(um^2)	Cext(um^2)	Cback(um^2)
390	662.9	662.9	418.565
392.5	663.039	663.039	515.484
395	662.935	662.935	368.751
397.5	663.205	663.205	381.697
400	663.494	663.494	517.269
402.5	663.522	663.522	550.79
405	663.353	663.353	428.345
407.5	663.513	663.513	398.78
410	663.712	663.712	444.09
412.5	663.922	663.922	481.143
415	663.849	663.849	506.715
417.5	663.355	663.355	470.094
420	663.833	663.833	424.876
422.5	663.883	663.883	427.438
425	664.337	664.337	476.019
427.5	664.728	664.728	578.52
430	664.594	664.594	493.309
432.5	664.018	664.018	403.177
435	665.017	665.017	523.085
437.5	664.641	664.641	448.241
440	664.921	664.921	375.99
442.5	665.001	665.001	441.28
445	664.882	664.882	430.431
447.5	664.835	664.835	476.044
450	665.122	665.122	475.039
452.5	665.257	665.257	511.683
455	665.136	665.136	426.756
457.5	665.375	665.375	448.231
460	664.258	664.258	431.868
462.5	665.756	665.756	494.538
465	665.73	665.73	452.112
467.5	665.478	665.478	428.87
470	665.16	665.16	382.605
472.5	665.931	665.931	484.501
475	665.365	665.365	363.116
477.5	666.045	666.045	491.444
480	666.264	666.264	476.903
482.5	666.105	666.105	476.855
485	666.282	666.282	478.441
487.5	665.897	665.897	397.29
490	666.278	666.278	432.713
492.5	666.404	666.404	447.544
495	666.955	666.955	440.737
497.5	667.355	667.355	455.948
500	665.795	665.795	411.923
502.5	667.287	667.287	665.908
505	669.931	669.931	355.738
507.5	666.632	666.632	375.561
510	666.226	666.226	419.264
512.5	666.736	666.736	463.072
515	668.142	668.142	290.946
517.5	666.496	666.496	363.181
520	667.758	667.758	446.926
522.5	667.327	667.327	571.82
525	667.462	667.462	504.217
527.5	667.548	667.548	344.124
530	667.354	667.354	340.204
532.5	667.696	667.696	470.25
535	668.236	668.236	475.94
537.5	667.963	667.963	450.582
540	668.098	668.098	474.827
542.5	668.044	668.044	450.233
545	668.137	668.137	455.261
547.5	668.349	668.349	435.698
550	668.524	668.524	475.669
552.5	668.386	668.386	507.949
555	668.689	668.689	426.701
557.5	668.289	668.289	384.442
560	668.824	668.824	478.752
562.5	668.595	668.595	423.021
565	668.742	668.742	434.409
567.5	668.711	668.711	435.693
570	669.369	669.369	490.073
572.5	669.209	669.209	458.701
575	667.818	667.818	451.202
577.5	668.899	668.899	366.58
580	669.759	669.759	547.345
582.5	669.822	669.822	454.364
585	669.809	669.809	480.711
587.5	669.396	669.396	396.118
590	669.602	669.602	473.728
592.5	669.549	669.549	439.852
595	669.972	669.972	465.409
597.5	670.1	670.1	469.343
600	669.946	669.946	450.067
602.5	669.712	669.712	422.48
605	669.569	669.569	456.626
607.5	670.399	670.399	517.94
610	670.297	670.297	440.078
612.5	670.685	670.685	452.383
615	671.351	671.351	545.36
617.5	671.567	671.567	394.194
620	671.159	671.159	456.064
622.5	670.67	670.67	488.014
625	670.645	670.645	450.096
627.5	671.043	671.043	473.162
630	670.947	670.947	466.345
632.5	670.746	670.746	372.655
635	670.957	670.957	505.782
637.5	671.042	671.042	470.588
640	671.117	671.117	475.291
642.5	671.354	671.354	472.306
645	671.446	671.446	455.734
647.5	671.106	671.106	417.399
650	671.78	671.78	449.922
652.5	672.018	672.018	509.114
655	671.385	671.385	428.9
657.5	670.25	670.25	409.837
660	671.501	671.501	427.504
662.5	671.513	671.513	413.655
665	671.264	671.264	372.584
667.5	671.804	671.804	405.009
670	672.301	672.301	454.147
672.5	671.936	671.936	419.093
675	672.056	672.056	428.853
677.5	673.175	673.175	531.554
680	671.125	671.125	335.264
682.5	672.779	672.779	410.887
685	672.02	672.02	362.989
687.5	672.347	672.347	418.549
690	672.586	672.586	432.649
692.5	672.734	672.734	391.863
695	673.41	673.41	581.783
697.5	672.905	672.905	446.668
700	673.271	673.271	441.294
702.5	672.934	672.934	445.753
705	673.066	673.066	422.299
707.5	673.362	673.362	491.778
710	672.931	672.931	422.851
712.5	672.696	672.696	389.696
715	673.645	673.645	445.182
717.5	673.816	673.816	505.432
720	673.702	673.702	470.601
722.5	673.701	673.701	465.816
725	674.209	674.209	435.308
727.5	673.589	673.589	431.574
730	674.173	674.173	505.683
732.5	673.878	673.878	401.122
735	673.995	673.995	420.897
737.5	674.004	674.004	454.941
740	674.708	674.708	436.44
742.5	674.359	674.359	415.726
745	673.38	673.38	482.635
747.5	674.81	674.81	431.637
750	676.331	676.331	387.534
752.5	674.032	674.032	611.145
755	670.662	670.662	295.667
757.5	679.029	679.029	273.929
760	674.372	674.372	677.319
762.5	672.364	672.364	316.357
765	675.067	675.067	370.005
767.5	675.557	675.557	482.94
770	673.349	673.349	395.152
772.5	677.844	677.844	354.127
775	676.715	676.715	632.009
777.5	675.568	675.568	417.559
780	677.035	677.035	646.357
782.5	675.359	675.359	603.342
785	675.768	675.768	201.135
787.5	675.293	675.293	505.646
790	675.908	675.908	645.005
792.5	675.707	675.707	273.12
795	675.586	675.586	383.443
797.5	676.296	676.296	579.614
800	675.64	675.64	408.126
802.5	676.293	676.293	406.039
805	676.035	676.035	477.681
807.5	676.274	676.274	405.496
810	675.994	675.994	400.048
812.5	676.673	676.673	460.984
815	676.4	676.4	449.523
817.5	676.419	676.419	424.66
820	676.617	676.617	490.392
822.5	676.435	676.435	428.015
825	676.724	676.724	454.956
827.5	676.822	676.822	515.167
830	676.655	676.655	416.104

Forward and Backward Scattering percentages:
WL(nm)	Forward %	Backward %
390	96.6052	3.39482
392.5	96.5983	3.40167
395	96.6062	3.39379
397.5	96.5932	3.40681
400	96.5828	3.41724
402.5	96.5801	3.4199
405	96.5905	3.40953
407.5	96.5924	3.4076
410	96.5779	3.42209
412.5	96.5708	3.42922
415	96.5786	3.4214
417.5	96.5896	3.41043
420	96.5796	3.42041
422.5	96.5769	3.42314
425	96.5605	3.43953
427.5	96.5343	3.46573
430	96.5519	3.44813
432.5	96.5903	3.40973
435	96.543	3.45698
437.5	96.5579	3.44209
440	96.544	3.45597
442.5	96.5462	3.45381
445	96.5546	3.44543
447.5	96.5532	3.44681
450	96.5348	3.46522
452.5	96.5353	3.46472
455	96.5445	3.45546
457.5	96.5289	3.47114
460	96.5677	3.43226
462.5	96.4993	3.50068
465	96.5363	3.46372
467.5	96.5408	3.45921
470	96.5644	3.43563
472.5	96.5162	3.48375
475	96.5533	3.44667
477.5	96.5107	3.48926
480	96.5154	3.48463
482.5	96.5202	3.47984
485	96.5045	3.49551
487.5	96.5346	3.46536
490	96.5175	3.48245
492.5	96.5086	3.49138
495	96.514	3.486
497.5	96.49	3.51002
500	96.5254	3.47459
502.5	96.2978	3.7022
505	96.2785	3.72148
507.5	96.505	3.49501
510	96.5169	3.48305
512.5	96.4983	3.50165
515	96.4526	3.5474
517.5	96.5204	3.47956
520	96.4687	3.53134
522.5	96.4795	3.52047
525	96.4799	3.52006
527.5	96.4807	3.51927
530	96.4947	3.50534
532.5	96.464	3.53597
535	96.4442	3.5558
537.5	96.4597	3.54034
540	96.4596	3.54043
542.5	96.4536	3.54643
545	96.456	3.54399
547.5	96.4535	3.5465
550	96.4378	3.56217
552.5	96.4627	3.53728
555	96.4277	3.57233
557.5	96.4591	3.54094
560	96.4438	3.55621
562.5	96.4356	3.56441
565	96.4455	3.55453
567.5	96.4405	3.55948
570	96.4164	3.58355
572.5	96.4245	3.57554
575	96.4888	3.51121
577.5	96.4448	3.55522
580	96.3928	3.60723
582.5	96.3918	3.60817
585	96.407	3.59304
587.5	96.4178	3.58217
590	96.4111	3.5889
592.5	96.4242	3.57584
595	96.416	3.58404
597.5	96.4077	3.5923
600	96.4059	3.59411
602.5	96.4012	3.59876
605	96.412	3.58798
607.5	96.3902	3.60982
610	96.4091	3.59091
612.5	96.3784	3.62163
615	96.3591	3.64093
617.5	96.3586	3.6414
620	96.3567	3.64328
622.5	96.3837	3.61626
625	96.3901	3.60992
627.5	96.3755	3.62452
630	96.377	3.62303
632.5	96.3957	3.60426
635	96.3791	3.62091
637.5	96.38	3.61997
640	96.3727	3.62733
642.5	96.3523	3.64775
645	96.3496	3.65041
647.5	96.3805	3.6195
650	96.3545	3.64551
652.5	96.3348	3.66521
655	96.3551	3.64492
657.5	96.4387	3.56131
660	96.3704	3.62958
662.5	96.371	3.62898
665	96.3753	3.62472
667.5	96.3439	3.65608
670	96.3385	3.66151
672.5	96.3525	3.64748
675	96.3462	3.6538
677.5	96.3014	3.69861
680	96.405	3.59498
682.5	96.3152	3.68485
685	96.3661	3.63393
687.5	96.3633	3.63675
690	96.3003	3.69974
692.5	96.3881	3.61186
695	96.251	3.74902
697.5	96.3303	3.66969
700	96.3086	3.6914
702.5	96.3071	3.69293
705	96.3212	3.67875
707.5	96.3172	3.68282
710	96.3221	3.67793
712.5	96.3445	3.65555
715	96.3016	3.69841
717.5	96.2989	3.70114
720	96.2922	3.70778
722.5	96.3083	3.69173
725	96.2768	3.72316
727.5	96.3041	3.69593
730	96.2751	3.72494
732.5	96.2945	3.70549
735	96.295	3.70499
737.5	96.2762	3.72385
740	96.2858	3.71423
742.5	96.2847	3.71532
745	96.2326	3.7674
747.5	96.3174	3.68259
750	96.3419	3.65814
752.5	95.9782	4.02185
755	96.6662	3.33383
757.5	96.1067	3.89326
760	96.2051	3.79489
762.5	96.4183	3.58166
765	96.2917	3.7083
767.5	96.2769	3.72314
770	96.2938	3.70621
772.5	96.0846	3.91543
775	96.1419	3.85806
777.5	96.2526	3.74738
780	96.1721	3.82789
782.5	96.2439	3.75607
785	96.2443	3.75574
787.5	96.2416	3.75843
790	96.2337	3.76635
792.5	96.2456	3.75436
795	96.2408	3.75924
797.5	96.2049	3.79511
800	96.2505	3.74947
802.5	96.2142	3.78575
805	96.2261	3.77389
807.5	96.2287	3.77131
810	96.2365	3.7635
812.5	96.2021	3.79794
815	96.2157	3.78429
817.5	96.2237	3.77627
820	96.1997	3.80028
822.5	96.2359	3.76414
825	96.2124	3.78758
827.5	96.1995	3.80053
830	96.2106	3.7894

