Simulation parameters:

Distribution: Poly Disperse - Log Normal 
Number of discrete sphere sizes: 101
Mean diameter of spheres: 10 um
Std. deviation: 0.25 um
Total Concentration (Spheres in a volume of 1mm^3): 1e+08

Wavelength Range: 390nm to 830nm in 2.5nm steps

Sphere and Medium Data:
Dia.(um)	Num. Den.(in a vol. of 1mm^3)	Ref. Index of sphere (real | imag)
3.58151	2038	1.333	0	1
3.79206	4794	1.333	0	1
4.0026	10260	1.333	0	1
4.21315	20227	1.333	0	1
4.4237	37102	1.333	0	1
4.63424	63857	1.333	0	1
4.84479	103874	1.333	0	1
5.05533	160679	1.333	0	1
5.26588	237611	1.333	0	1
5.47643	337453	1.333	0	1
5.68697	462092	1.333	0	1
5.89752	612244	1.333	0	1
6.10806	787277	1.333	0	1
6.31861	985164	1.333	0	1
6.52916	1.20256e+06	1.333	0	1
6.7397	1.43496e+06	1.333	0	1
6.95025	1.677e+06	1.333	0	1
7.16079	1.92274e+06	1.333	0	1
7.37134	2.16604e+06	1.333	0	1
7.58189	2.40085e+06	1.333	0	1
7.79243	2.6215e+06	1.333	0	1
8.00298	2.823e+06	1.333	0	1
8.21352	3.00116e+06	1.333	0	1
8.42407	3.15271e+06	1.333	0	1
8.63462	3.27539e+06	1.333	0	1
8.84516	3.3679e+06	1.333	0	1
9.05571	3.42989e+06	1.333	0	1
9.26625	3.46182e+06	1.333	0	1
9.4768	3.46489e+06	1.333	0	1
9.68734	3.44092e+06	1.333	0	1
9.89789	3.39216e+06	1.333	0	1
10.1084	3.32121e+06	1.333	0	1
10.319	3.23089e+06	1.333	0	1
10.5295	3.12411e+06	1.333	0	1
10.7401	3.00377e+06	1.333	0	1
10.9506	2.87273e+06	1.333	0	1
11.1612	2.73367e+06	1.333	0	1
11.3717	2.58911e+06	1.333	0	1
11.5823	2.44133e+06	1.333	0	1
11.7928	2.29239e+06	1.333	0	1
12.0034	2.14406e+06	1.333	0	1
12.2139	1.99789e+06	1.333	0	1
12.4244	1.85517e+06	1.333	0	1
12.635	1.71694e+06	1.333	0	1
12.8455	1.58406e+06	1.333	0	1
13.0561	1.45715e+06	1.333	0	1
13.2666	1.33666e+06	1.333	0	1
13.4772	1.22291e+06	1.333	0	1
13.6877	1.11605e+06	1.333	0	1
13.8983	1.01613e+06	1.333	0	1
14.1088	923083	1.333	0	1
14.3194	836788	1.333	0	1
14.5299	757044	1.333	0	1
14.7404	683602	1.333	0	1
14.951	616179	1.333	0	1
15.1615	554463	1.333	0	1
15.3721	498126	1.333	0	1
15.5826	446832	1.333	0	1
15.7932	400241	1.333	0	1
16.0037	358020	1.333	0	1
16.2143	319837	1.333	0	1
16.4248	285377	1.333	0	1
16.6354	254335	1.333	0	1
16.8459	226420	1.333	0	1
17.0565	201360	1.333	0	1
17.267	178897	1.333	0	1
17.4775	158792	1.333	0	1
17.6881	140822	1.333	0	1
17.8986	124782	1.333	0	1
18.1092	110482	1.333	0	1
18.3197	97749	1.333	0	1
18.5303	86422	1.333	0	1
18.7408	76357	1.333	0	1
18.9514	67422	1.333	0	1
19.1619	59497	1.333	0	1
19.3725	52475	1.333	0	1
19.583	46258	1.333	0	1
19.7936	40757	1.333	0	1
20.0041	35893	1.333	0	1
20.2146	31597	1.333	0	1
20.4252	27803	1.333	0	1
20.6357	24456	1.333	0	1
20.8463	21504	1.333	0	1
21.0568	18902	1.333	0	1
21.2674	16610	1.333	0	1
21.4779	14591	1.333	0	1
21.6885	12815	1.333	0	1
21.899	11251	1.333	0	1
22.1096	9877	1.333	0	1
22.3201	8668	1.333	0	1
22.5306	7606	1.333	0	1
22.7412	6673	1.333	0	1
22.9517	5854	1.333	0	1
23.1623	5134	1.333	0	1
23.3728	4502	1.333	0	1
23.5834	3948	1.333	0	1
23.7939	3461	1.333	0	1
24.0045	3034	1.333	0	1
24.215	2660	1.333	0	1
24.4256	2332	1.333	0	1
24.6361	2044	1.333	0	1


Output:


Scattering Coefficient (us), g and Reduced Scattering Coefficient (us'):
WL(nm)	us(mm^-1)	g	us'(mm^-1)
390	18693.3	0.861592	2587.31
392.5	18644.7	0.86183	2576.14
395	18753.3	0.857222	2677.55
397.5	18595	0.871157	2395.85
400	18680.7	0.856223	2685.85
402.5	18682.6	0.862735	2564.46
405	18654	0.861896	2576.18
407.5	18647	0.863037	2553.96
410	18692.1	0.860913	2599.83
412.5	18693.3	0.861148	2595.6
415	18714	0.859954	2620.82
417.5	18713.7	0.86029	2614.49
420	18728.4	0.859549	2630.42
422.5	18720.3	0.860007	2620.71
425	18733.4	0.859448	2633.02
427.5	18730.9	0.859652	2628.84
430	18731.9	0.859647	2629.08
432.5	18734.9	0.859589	2630.59
435	18760.9	0.858405	2656.44
437.5	18738.6	0.859524	2632.34
440	18743	0.859432	2634.66
442.5	18736	0.859723	2628.23
445	18748.7	0.859204	2639.74
447.5	18780	0.857829	2669.97
450	18765.6	0.858559	2654.22
452.5	18769.4	0.858369	2658.33
455	18772.8	0.85834	2659.35
457.5	18782.1	0.857966	2667.7
460	18760.3	0.858746	2649.98
462.5	18779.4	0.858212	2662.7
465	18814.5	0.856717	2695.8
467.5	18776.1	0.858449	2657.77
470	18800	0.857449	2679.96
472.5	18789.8	0.857959	2668.92
475	18797	0.85766	2675.56
477.5	18818.4	0.856728	2696.16
480	18803.5	0.857406	2681.27
482.5	18800.4	0.857711	2675.09
485	18869.4	0.855138	2733.45
487.5	18810.1	0.857201	2686.06
490	18784.9	0.85841	2659.76
492.5	18818	0.857085	2689.37
495	18820.7	0.856982	2691.7
497.5	18838.5	0.856202	2708.94
500	18827.9	0.856702	2698.01
502.5	18852.8	0.855688	2720.69
505	18864.2	0.855244	2730.72
507.5	18852.3	0.855849	2717.58
510	18889.6	0.854202	2754.06
512.5	18842.5	0.856313	2707.43
515	18870.8	0.855114	2734.11
517.5	18860.6	0.855673	2722.1
520	18874.3	0.855132	2734.28
522.5	18868.6	0.8553	2730.28
525	18868.5	0.855488	2726.72
527.5	18871.9	0.855245	2731.8
530	18887.9	0.853906	2759.41
532.5	18912.8	0.853873	2763.67
535	18874.1	0.855356	2730.02
537.5	18911.4	0.854089	2759.38
540	18846.7	0.85631	2708.09
542.5	18966.8	0.850875	2828.42
545	18919.3	0.853846	2765.12
547.5	18895.6	0.854509	2749.14
550	18946.5	0.852458	2795.41
552.5	18894.1	0.854939	2740.81
555	18925.5	0.853633	2770.07
557.5	18926.7	0.853207	2778.3
560	18928.2	0.853131	2779.97
562.5	18918.3	0.854121	2759.77
565	18928.1	0.853869	2765.98
567.5	18925.4	0.853608	2770.54
570	18915.7	0.854011	2761.48
572.5	18928.6	0.853567	2771.76
575	18937.5	0.853352	2777.15
577.5	18946.6	0.852863	2787.74
580	18944.2	0.853139	2782.17
582.5	18947.5	0.853141	2782.61
585	18972	0.851885	2810.03
587.5	18948.2	0.853055	2784.34
590	18980.8	0.851679	2815.26
592.5	18964.2	0.85242	2798.75
595	18974.9	0.85198	2808.66
597.5	18959.4	0.852754	2791.69
600	18970.8	0.852143	2804.97
602.5	18960.5	0.852869	2789.68
605	18909.6	0.854696	2747.64
607.5	18976.9	0.851513	2817.81
610	19018.4	0.850463	2843.95
612.5	18941.9	0.853692	2771.36
615	18978.3	0.852093	2807.03
617.5	19010.7	0.850852	2835.4
620	19039.7	0.849532	2864.86
622.5	19005.7	0.850975	2832.32
625	19014.9	0.850692	2839.07
627.5	19018.5	0.850863	2836.36
630	19009.1	0.851303	2826.61
632.5	19041.6	0.849611	2863.65
635	19011.8	0.850882	2835.01
637.5	19014	0.85088	2835.36
640	19031.6	0.850346	2848.16
642.5	19038.5	0.850274	2850.56
645	19064.2	0.8492	2874.89
647.5	19039.4	0.850085	2854.28
650	19030.9	0.850287	2849.17
652.5	19055.5	0.849337	2870.96
655	19080.2	0.848432	2891.94
657.5	19083.4	0.848325	2894.47
660	19064.2	0.849192	2875.04
662.5	19059.9	0.84943	2869.84
665	19062.5	0.849346	2871.85
667.5	19078	0.848725	2886.03
670	19076.6	0.848748	2885.38
672.5	19075	0.848972	2880.86
675	19086	0.848605	2889.51
677.5	19091.8	0.848355	2895.17
680	19143.6	0.846065	2946.86
682.5	19102.7	0.847826	2906.92
685	19101	0.847931	2904.68
687.5	19092.9	0.848312	2896.16
690	19091.7	0.848439	2893.56
692.5	19088.4	0.848687	2888.31
695	19093	0.848539	2891.85
697.5	19134.5	0.84673	2932.75
700	19134.8	0.846659	2934.15
702.5	19125.3	0.847158	2923.15
705	19113.1	0.847752	2909.93
707.5	19128.1	0.847103	2924.63
710	19140.8	0.846631	2935.61
712.5	19115.5	0.847994	2905.67
715	19134.7	0.847114	2925.43
717.5	19114	0.84785	2908.19
720	19138.2	0.846384	2939.94
722.5	19137	0.846572	2936.14
725	19143.7	0.846967	2929.62
727.5	19153	0.847224	2926.12
730	19146.7	0.846981	2929.8
732.5	19155.4	0.845817	2953.45
735	19148.9	0.846014	2948.66
737.5	19151.8	0.846489	2940.02
740	19191.5	0.845259	2969.7
742.5	19157.8	0.846788	2935.2
745	19175.9	0.845726	2958.35
747.5	19179.7	0.845236	2968.33
750	19198.8	0.844249	2990.24
752.5	19176.8	0.845408	2964.59
755	19162.8	0.846547	2940.58
757.5	19199.4	0.845566	2965.04
760	19190.5	0.846118	2953.07
762.5	19220.4	0.844186	2994.82
765	19208	0.843715	3001.92
767.5	19241.5	0.84158	3048.24
770	19176.2	0.84464	2979.21
772.5	19182.2	0.845413	2965.32
775	19187	0.846702	2941.33
777.5	19212.9	0.847115	2937.36
780	19238.7	0.84682	2946.98
782.5	19303.3	0.842353	3043.1
785	19317.1	0.83746	3139.81
787.5	19226.7	0.836326	3146.92
790	19045.8	0.844979	2952.51
792.5	19027.7	0.855254	2754.18
795	19189.6	0.856381	2756
797.5	19502.3	0.842622	3069.23
800	19532.4	0.829277	3334.63
802.5	19240.4	0.835144	3171.9
805	19103.8	0.84171	3023.94
807.5	18999.4	0.853634	2780.86
810	19134.2	0.851908	2833.62
812.5	19392.4	0.841939	3065.19
815	19313.5	0.841361	3063.87
817.5	19227.7	0.844776	2984.61
820	19333.2	0.839463	3103.69
822.5	19215.5	0.844224	2993.31
825	19312.6	0.840128	3087.54
827.5	19230.6	0.843957	3000.8
830	19203.1	0.845276	2971.18

Scattering (Csca), Extinction (Cext) and Backscattering (Cback) Cross Sections:
WL(nm)	Csca(um^2)	Cext(um^2)	Cback(um^2)
390	186.933	186.933	120.227
392.5	186.447	186.447	114.893
395	187.533	187.533	122.837
397.5	185.95	185.95	79.5492
400	186.807	186.807	187.623
402.5	186.826	186.826	96.5519
405	186.54	186.54	90.7353
407.5	186.47	186.47	121.42
410	186.921	186.921	99.3777
412.5	186.933	186.933	110.424
415	187.14	187.14	177.786
417.5	187.137	187.137	90.2291
420	187.284	187.284	145.389
422.5	187.203	187.203	104.575
425	187.334	187.334	112.326
427.5	187.309	187.309	122.411
430	187.319	187.319	117.617
432.5	187.349	187.349	116.229
435	187.609	187.609	143.989
437.5	187.386	187.386	91.3441
440	187.43	187.43	140.164
442.5	187.36	187.36	98.7455
445	187.487	187.487	123.098
447.5	187.8	187.8	126.748
450	187.656	187.656	124.631
452.5	187.694	187.694	114.375
455	187.728	187.728	124.003
457.5	187.821	187.821	130.181
460	187.603	187.603	119.456
462.5	187.794	187.794	121.335
465	188.145	188.145	149.377
467.5	187.761	187.761	109.33
470	188	188	120.54
472.5	187.898	187.898	109.431
475	187.97	187.97	118.466
477.5	188.184	188.184	147.69
480	188.035	188.035	122.885
482.5	188.004	188.004	118.102
485	188.694	188.694	134.906
487.5	188.101	188.101	111.956
490	187.849	187.849	90.2531
492.5	188.18	188.18	122.155
495	188.207	188.207	121.695
497.5	188.385	188.385	124.963
500	188.279	188.279	99.8875
502.5	188.528	188.528	126.813
505	188.642	188.642	129.536
507.5	188.523	188.523	128.474
510	188.896	188.896	123.304
512.5	188.425	188.425	117.062
515	188.708	188.708	134.498
517.5	188.606	188.606	121.695
520	188.743	188.743	126.011
522.5	188.686	188.686	124.269
525	188.685	188.685	113.952
527.5	188.719	188.719	119.225
530	188.879	188.879	136.552
532.5	189.128	189.128	126.754
535	188.741	188.741	112.882
537.5	189.114	189.114	132.819
540	188.467	188.467	109.12
542.5	189.668	189.668	130.968
545	189.193	189.193	107.325
547.5	188.956	188.956	127.377
550	189.465	189.465	192.215
552.5	188.941	188.941	115.743
555	189.255	189.255	118.922
557.5	189.267	189.267	132.514
560	189.282	189.282	139.081
562.5	189.183	189.183	119.108
565	189.281	189.281	121.512
567.5	189.254	189.254	128.167
570	189.157	189.157	111.198
572.5	189.286	189.286	115.981
575	189.375	189.375	118.604
577.5	189.466	189.466	118.453
580	189.442	189.442	122.044
582.5	189.475	189.475	124.774
585	189.72	189.72	141.799
587.5	189.482	189.482	121.985
590	189.808	189.808	142.218
592.5	189.642	189.642	123.409
595	189.749	189.749	113.764
597.5	189.594	189.594	130.765
600	189.708	189.708	130.514
602.5	189.605	189.605	109.331
605	189.096	189.096	83.5146
607.5	189.769	189.769	124.046
610	190.184	190.184	139.993
612.5	189.419	189.419	93.4043
615	189.783	189.783	96.9692
617.5	190.107	190.107	113.792
620	190.397	190.397	171.122
622.5	190.057	190.057	105.674
625	190.149	190.149	109.225
627.5	190.185	190.185	124.101
630	190.091	190.091	117.516
632.5	190.416	190.416	132.367
635	190.118	190.118	115.225
637.5	190.14	190.14	119.688
640	190.316	190.316	123.92
642.5	190.385	190.385	123.862
645	190.642	190.642	141.071
647.5	190.393	190.393	125.201
650	190.309	190.309	105.385
652.5	190.555	190.555	122.384
655	190.802	190.802	150.977
657.5	190.834	190.834	160.102
660	190.642	190.642	129.885
662.5	190.599	190.599	126.399
665	190.625	190.625	129.11
667.5	190.78	190.78	129.51
670	190.766	190.766	120.555
672.5	190.75	190.75	122.616
675	190.86	190.86	123.911
677.5	190.918	190.918	125.015
680	191.436	191.436	151.445
682.5	191.027	191.027	139.137
685	191.01	191.01	130.368
687.5	190.929	190.929	118.077
690	190.917	190.917	122.669
692.5	190.884	190.884	125.012
695	190.93	190.93	113.369
697.5	191.345	191.345	136.244
700	191.348	191.348	140.174
702.5	191.253	191.253	120.343
705	191.131	191.131	134.033
707.5	191.281	191.281	119.185
710	191.408	191.408	121.774
712.5	191.155	191.155	118.473
715	191.347	191.347	135.593
717.5	191.14	191.14	106.9
720	191.382	191.382	126.45
722.5	191.37	191.37	131.079
725	191.437	191.437	113.783
727.5	191.53	191.53	129.776
730	191.467	191.467	119.416
732.5	191.554	191.554	119.377
735	191.489	191.489	111.35
737.5	191.518	191.518	120.926
740	191.915	191.915	130.133
742.5	191.578	191.578	119.14
745	191.759	191.759	125.375
747.5	191.797	191.797	129.049
750	191.988	191.988	127.139
752.5	191.768	191.768	130.713
755	191.628	191.628	119.196
757.5	191.994	191.994	138.32
760	191.905	191.905	113.929
762.5	192.204	192.204	127.403
765	192.08	192.08	120.503
767.5	192.415	192.415	155.447
770	191.762	191.762	137.524
772.5	191.822	191.822	119.501
775	191.87	191.87	107.365
777.5	192.129	192.129	115.248
780	192.387	192.387	110.277
782.5	193.033	193.033	130.091
785	193.171	193.171	156.584
787.5	192.267	192.267	155.561
790	190.458	190.458	121.804
792.5	190.277	190.277	79.1537
795	191.896	191.896	59.5764
797.5	195.023	195.023	110.726
800	195.324	195.324	227.162
802.5	192.404	192.404	171.438
805	191.038	191.038	118.347
807.5	189.994	189.994	43.2189
810	191.342	191.342	73.5651
812.5	193.924	193.924	95.0735
815	193.135	193.135	151.192
817.5	192.277	192.277	165.014
820	193.332	193.332	158.635
822.5	192.155	192.155	75.2928
825	193.126	193.126	72.4016
827.5	192.306	192.306	73.5611
830	192.031	192.031	113.951

Forward and Backward Scattering percentages:
WL(nm)	Forward %	Backward %
390	96.2957	3.70434
392.5	96.2694	3.73058
395	96.2409	3.75908
397.5	96.6679	3.33215
400	96.2051	3.79489
402.5	96.2966	3.70344
405	96.31	3.68998
407.5	96.3479	3.65208
410	96.2676	3.73245
412.5	96.2777	3.72232
415	96.2261	3.77395
417.5	96.2499	3.75005
420	96.2209	3.77914
422.5	96.239	3.76098
425	96.2287	3.77131
427.5	96.2227	3.77734
430	96.2315	3.7685
432.5	96.2233	3.77672
435	96.175	3.82505
437.5	96.2307	3.76932
440	96.2325	3.7675
442.5	96.2287	3.77132
445	96.2084	3.79162
447.5	96.1651	3.83493
450	96.195	3.80499
452.5	96.1691	3.83086
455	96.1949	3.8051
457.5	96.1608	3.83919
460	96.2084	3.79164
462.5	96.1867	3.81333
465	96.1291	3.87095
467.5	96.1881	3.81187
470	96.1651	3.83492
472.5	96.1745	3.8255
475	96.1533	3.8467
477.5	96.1285	3.87153
480	96.1583	3.84167
482.5	96.1681	3.83192
485	96.0298	3.97017
487.5	96.1547	3.84531
490	96.1963	3.80373
492.5	96.1291	3.87094
495	96.1368	3.86318
497.5	96.1101	3.88989
500	96.1334	3.86656
502.5	96.0955	3.9045
505	96.0873	3.91274
507.5	96.0968	3.90325
510	96.0404	3.95964
512.5	96.1134	3.88663
515	96.0746	3.92538
517.5	96.0965	3.90353
520	96.085	3.91503
522.5	96.0801	3.91989
525	96.0833	3.91669
527.5	96.0684	3.93156
530	96.0059	3.99414
532.5	96.0133	3.98674
535	96.0643	3.93575
537.5	96.0461	3.95386
540	96.0968	3.90323
542.5	95.9349	4.06511
545	95.9856	4.0144
547.5	96.0504	3.94959
550	95.9755	4.02447
552.5	96.0719	3.92808
555	96.0272	3.97277
557.5	96.0182	3.98183
560	95.9994	4.00056
562.5	96.0473	3.95266
565	96.027	3.97298
567.5	96.0263	3.97373
570	96.0442	3.95575
572.5	96.0205	3.97945
575	96.0169	3.98306
577.5	95.9894	4.01062
580	95.9942	4.00584
582.5	96.0151	3.98495
585	95.9675	4.03248
587.5	95.9998	4.00021
590	95.9457	4.05432
592.5	95.9824	4.01765
595	95.9706	4.02935
597.5	95.9954	4.00459
600	95.9917	4.00832
602.5	96.0077	3.99226
605	96.0713	3.9287
607.5	95.9871	4.01295
610	95.9277	4.07228
612.5	96.0484	3.9516
615	96.0012	3.99875
617.5	95.9364	4.06364
620	95.8489	4.1511
622.5	95.9376	4.06236
625	95.9149	4.08514
627.5	95.933	4.06704
630	95.9535	4.04653
632.5	95.8815	4.11852
635	95.9245	4.07554
637.5	95.9322	4.06781
640	95.918	4.08195
642.5	95.9306	4.06939
645	95.8491	4.15091
647.5	95.8936	4.10637
650	95.9261	4.07392
652.5	95.8779	4.12206
655	95.8408	4.15916
657.5	95.8328	4.16722
660	95.8722	4.12784
662.5	95.8777	4.12228
665	95.8779	4.12208
667.5	95.8581	4.14193
670	95.8543	4.14573
672.5	95.8625	4.13749
675	95.8576	4.14239
677.5	95.8617	4.13826
680	95.735	4.26498
682.5	95.8253	4.17475
685	95.8503	4.14966
687.5	95.8582	4.14178
690	95.838	4.16203
692.5	95.8742	4.12581
695	95.8541	4.14589
697.5	95.7728	4.22722
700	95.7909	4.20905
702.5	95.7818	4.21818
705	95.8304	4.16962
707.5	95.7887	4.2113
710	95.7908	4.20923
712.5	95.8417	4.1583
715	95.7951	4.20488
717.5	95.8477	4.15226
720	95.7966	4.20338
722.5	95.7808	4.21921
725	95.7728	4.22723
727.5	95.8088	4.19122
730	95.8129	4.18708
732.5	95.7488	4.25117
735	95.7625	4.23746
737.5	95.7953	4.20474
740	95.7756	4.22442
742.5	95.8171	4.18291
745	95.753	4.24697
747.5	95.7326	4.26744
750	95.7099	4.29014
752.5	95.7365	4.26354
755	95.7898	4.21022
757.5	95.7232	4.27679
760	95.7691	4.23086
762.5	95.7035	4.29652
765	95.6944	4.30558
767.5	95.6282	4.37177
770	95.7135	4.28651
772.5	95.741	4.25895
775	95.7296	4.27036
777.5	95.7415	4.25849
780	95.8306	4.1694
782.5	95.7541	4.24588
785	95.5319	4.46806
787.5	95.3431	4.65691
790	95.5773	4.42269
792.5	96.1385	3.86152
795	96.264	3.73603
797.5	95.6392	4.36082
800	95.0069	4.99308
802.5	95.4676	4.53237
805	95.7598	4.24017
807.5	96.1117	3.88834
810	95.9669	4.03313
812.5	95.5146	4.48542
815	95.6216	4.3784
817.5	95.7524	4.24764
820	95.5571	4.44295
822.5	95.7473	4.25266
825	95.6675	4.33247
827.5	95.6843	4.31566
830	95.746	4.25401

