Simulation parameters:

Distribution: Poly Disperse - Log Normal 
Number of discrete sphere sizes: 101
Mean diameter of spheres: 17 um
Std. deviation: 0.25 um
Total Concentration (Spheres in a volume of 1mm^3): 1e+08

Wavelength Range: 390nm to 830nm in 2.5nm steps

Sphere and Medium Data:
Dia.(um)	Num. Den.(in a vol. of 1mm^3)	Ref. Index of sphere (real | imag)
6.08857	2038	1.333	0	1
6.4465	4794	1.333	0	1
6.80443	10260	1.333	0	1
7.16236	20227	1.333	0	1
7.52028	37102	1.333	0	1
7.87821	63857	1.333	0	1
8.23614	103874	1.333	0	1
8.59407	160679	1.333	0	1
8.952	237611	1.333	0	1
9.30992	337453	1.333	0	1
9.66785	462092	1.333	0	1
10.0258	612244	1.333	0	1
10.3837	787277	1.333	0	1
10.7416	985164	1.333	0	1
11.0996	1.20256e+06	1.333	0	1
11.4575	1.43496e+06	1.333	0	1
11.8154	1.677e+06	1.333	0	1
12.1733	1.92274e+06	1.333	0	1
12.5313	2.16604e+06	1.333	0	1
12.8892	2.40085e+06	1.333	0	1
13.2471	2.6215e+06	1.333	0	1
13.6051	2.823e+06	1.333	0	1
13.963	3.00116e+06	1.333	0	1
14.3209	3.15271e+06	1.333	0	1
14.6788	3.27539e+06	1.333	0	1
15.0368	3.3679e+06	1.333	0	1
15.3947	3.42989e+06	1.333	0	1
15.7526	3.46182e+06	1.333	0	1
16.1106	3.46489e+06	1.333	0	1
16.4685	3.44092e+06	1.333	0	1
16.8264	3.39216e+06	1.333	0	1
17.1843	3.32121e+06	1.333	0	1
17.5423	3.23089e+06	1.333	0	1
17.9002	3.12411e+06	1.333	0	1
18.2581	3.00377e+06	1.333	0	1
18.6161	2.87273e+06	1.333	0	1
18.974	2.73367e+06	1.333	0	1
19.3319	2.58911e+06	1.333	0	1
19.6898	2.44133e+06	1.333	0	1
20.0478	2.29239e+06	1.333	0	1
20.4057	2.14406e+06	1.333	0	1
20.7636	1.99789e+06	1.333	0	1
21.1216	1.85517e+06	1.333	0	1
21.4795	1.71694e+06	1.333	0	1
21.8374	1.58406e+06	1.333	0	1
22.1953	1.45715e+06	1.333	0	1
22.5533	1.33666e+06	1.333	0	1
22.9112	1.22291e+06	1.333	0	1
23.2691	1.11605e+06	1.333	0	1
23.627	1.01613e+06	1.333	0	1
23.985	923083	1.333	0	1
24.3429	836788	1.333	0	1
24.7008	757044	1.333	0	1
25.0588	683602	1.333	0	1
25.4167	616179	1.333	0	1
25.7746	554463	1.333	0	1
26.1325	498126	1.333	0	1
26.4905	446832	1.333	0	1
26.8484	400241	1.333	0	1
27.2063	358020	1.333	0	1
27.5643	319837	1.333	0	1
27.9222	285377	1.333	0	1
28.2801	254335	1.333	0	1
28.638	226420	1.333	0	1
28.996	201360	1.333	0	1
29.3539	178897	1.333	0	1
29.7118	158792	1.333	0	1
30.0698	140822	1.333	0	1
30.4277	124782	1.333	0	1
30.7856	110482	1.333	0	1
31.1435	97749	1.333	0	1
31.5015	86422	1.333	0	1
31.8594	76357	1.333	0	1
32.2173	67422	1.333	0	1
32.5753	59497	1.333	0	1
32.9332	52475	1.333	0	1
33.2911	46258	1.333	0	1
33.649	40757	1.333	0	1
34.007	35893	1.333	0	1
34.3649	31597	1.333	0	1
34.7228	27803	1.333	0	1
35.0807	24456	1.333	0	1
35.4387	21504	1.333	0	1
35.7966	18902	1.333	0	1
36.1545	16610	1.333	0	1
36.5125	14591	1.333	0	1
36.8704	12815	1.333	0	1
37.2283	11251	1.333	0	1
37.5862	9877	1.333	0	1
37.9442	8668	1.333	0	1
38.3021	7606	1.333	0	1
38.66	6673	1.333	0	1
39.018	5854	1.333	0	1
39.3759	5134	1.333	0	1
39.7338	4502	1.333	0	1
40.0917	3948	1.333	0	1
40.4497	3461	1.333	0	1
40.8076	3034	1.333	0	1
41.1655	2660	1.333	0	1
41.5235	2332	1.333	0	1
41.8814	2044	1.333	0	1


Output:


Scattering Coefficient (us), g and Reduced Scattering Coefficient (us'):
WL(nm)	us(mm^-1)	g	us'(mm^-1)
390	53213.8	0.869292	6955.47
392.5	53183.5	0.869767	6926.24
395	53231.8	0.868806	6983.68
397.5	53216.8	0.869334	6953.6
400	53251.3	0.868792	6987
402.5	53254.6	0.868798	6987.09
405	53236.8	0.869135	6966.85
407.5	53233	0.869209	6962.37
410	53260.9	0.868943	6980.23
412.5	53284.4	0.868665	6998.13
415	53251.7	0.86909	6971.18
417.5	53271.5	0.868731	6992.91
420	53287	0.868651	6999.22
422.5	53304.3	0.868349	7017.58
425	53266	0.868926	6981.77
427.5	53329.9	0.868002	7039.45
430	53326.2	0.868161	7030.47
432.5	53307.7	0.868466	7011.77
435	53343	0.867947	7044.11
437.5	53342.2	0.867985	7041.95
440	53362.7	0.867773	7056
442.5	53381.2	0.868021	7045.22
445	53380.1	0.867828	7055.33
447.5	53319.6	0.869753	6944.73
450	53238.4	0.869214	6962.83
452.5	53492.6	0.86279	7339.71
455	53439.6	0.866906	7112.48
457.5	53292	0.869431	6958.25
460	53308.9	0.869081	6979.12
462.5	53446.8	0.866697	7124.64
465	53408.6	0.867395	7082.25
467.5	53423.1	0.867184	7095.44
470	53466	0.866445	7140.63
472.5	53423.1	0.867303	7089.11
475	53462.2	0.866668	7128.25
477.5	53455.9	0.866914	7114.22
480	53465.1	0.866648	7129.7
482.5	53467	0.866744	7124.82
485	53505	0.866161	7161.07
487.5	53460.9	0.866945	7113.26
490	53507.9	0.866207	7158.97
492.5	53484.6	0.866598	7134.94
495	53482.2	0.866696	7129.38
497.5	53538.6	0.865585	7196.41
500	53536.6	0.865915	7178.48
502.5	53486.5	0.866701	7129.67
505	53545.3	0.865795	7186.06
507.5	53592.1	0.865175	7225.53
510	53586.6	0.86524	7221.33
512.5	53583.6	0.865349	7215.11
515	53584.9	0.86573	7194.83
517.5	53530.4	0.866271	7158.54
520	53648.6	0.864426	7273.35
522.5	53595.8	0.865281	7220.35
525	53584.3	0.865601	7201.69
527.5	53599.8	0.865307	7219.54
530	53605.8	0.865268	7222.42
532.5	53673.7	0.86411	7293.74
535	53622.5	0.865171	7229.88
537.5	53643.6	0.864694	7258.31
540	53634.5	0.865366	7221.03
542.5	53667.2	0.864713	7260.5
545	53672.3	0.864443	7275.67
547.5	53596.3	0.86568	7199.03
550	53695.6	0.864236	7289.94
552.5	53762.6	0.863337	7347.37
555	53697.9	0.864214	7291.41
557.5	53685.3	0.864394	7280.05
560	53689.1	0.86436	7282.41
562.5	53699.8	0.864233	7290.64
565	53707.3	0.864153	7296
567.5	53680.2	0.864578	7269.47
570	53718.8	0.864039	7303.65
572.5	53726	0.864018	7305.75
575	53718.7	0.864121	7299.24
577.5	53695.3	0.864541	7273.54
580	53759.5	0.863519	7337.17
582.5	53766.1	0.863471	7340.63
585	53768.1	0.863483	7340.27
587.5	53919.3	0.860676	7512.28
590	53754.9	0.863797	7321.61
592.5	53842.5	0.862438	7406.7
595	53738.3	0.864041	7306.21
597.5	53796.8	0.86321	7358.88
600	53776.9	0.863553	7337.7
602.5	53790.5	0.863404	7347.58
605	53861.6	0.862279	7417.87
607.5	53838.6	0.862931	7379.59
610	53813.8	0.863093	7367.5
612.5	53838.8	0.862818	7385.7
615	53871.4	0.862151	7426.12
617.5	53892.5	0.861827	7446.47
620	53837.2	0.863172	7366.44
622.5	53848.6	0.862287	7415.63
625	53891.1	0.862261	7422.9
627.5	53910.5	0.861796	7450.66
630	53817.9	0.863298	7357.03
632.5	53894.6	0.862121	7430.92
635	53865.3	0.862629	7399.54
637.5	53853	0.8628	7388.61
640	53904.9	0.862071	7435.03
642.5	53901	0.862121	7431.82
645	53922.1	0.861856	7449.02
647.5	53949.4	0.861538	7469.94
650	53929.5	0.861723	7457.2
652.5	54007.9	0.860533	7532.34
655	53983	0.861147	7495.73
657.5	53949	0.861553	7469.08
660	53919.6	0.861812	7451.02
662.5	54029.1	0.861401	7488.38
665	53949.3	0.860478	7527.1
667.5	53907.9	0.862047	7436.73
670	54070.2	0.863592	7375.6
672.5	54148.7	0.853391	7938.69
675	53620.7	0.869126	7017.55
677.5	54308.2	0.860336	7584.9
680	53987.1	0.856223	7762.12
682.5	53868.4	0.865016	7271.39
685	54259.1	0.858008	7704.36
687.5	54274.8	0.856018	7814.56
690	54036.3	0.86132	7493.75
692.5	53896	0.862745	7397.49
695	54256.5	0.857342	7740.13
697.5	54006.5	0.861207	7495.71
700	54070.4	0.860279	7554.77
702.5	54085.2	0.860181	7562.12
705	54082.9	0.859937	7574.99
707.5	54104.3	0.85991	7579.44
710	54069.4	0.860482	7543.66
712.5	54099.2	0.859902	7579.19
715	54108.1	0.859871	7582.11
717.5	54116.2	0.859792	7587.51
720	54109.6	0.859898	7580.85
722.5	54139.4	0.859448	7609.42
725	54121.3	0.859792	7588.22
727.5	54183.6	0.858859	7647.52
730	54174.4	0.858998	7638.71
732.5	54210.9	0.858488	7671.47
735	54158.9	0.85933	7618.55
737.5	54183.8	0.858967	7641.7
740	54123.3	0.859949	7580.04
742.5	54178.2	0.859119	7632.65
745	54174.2	0.859206	7627.39
747.5	54199.9	0.858785	7653.85
750	54196.3	0.858894	7647.43
752.5	54229.9	0.858469	7675.24
755	54177.3	0.859276	7624.04
757.5	54217.2	0.858609	7665.84
760	54312.4	0.857275	7751.74
762.5	54244.8	0.858318	7685.49
765	54232.7	0.858559	7670.71
767.5	54239.8	0.858466	7676.77
770	54212.3	0.858965	7645.84
772.5	54241.9	0.858485	7676.03
775	54192.1	0.859378	7620.62
777.5	54264.5	0.85822	7693.64
780	54271.8	0.858018	7705.6
782.5	54198.5	0.859449	7617.66
785	54272.3	0.858227	7694.35
787.5	54246.7	0.858544	7673.54
790	54331.6	0.857317	7752.22
792.5	54306	0.857701	7727.7
795	54286.8	0.858088	7703.95
797.5	54354.4	0.857045	7770.24
800	54300.4	0.857917	7715.16
802.5	54339.9	0.85735	7751.59
805	54355.1	0.857111	7766.76
807.5	54323.4	0.85766	7732.38
810	54326.7	0.857617	7735.22
812.5	54314.4	0.857748	7726.33
815	54371.7	0.856891	7781.1
817.5	54388.4	0.856803	7788.27
820	54356.1	0.857259	7758.85
822.5	54375.2	0.856353	7810.86
825	54598.3	0.853427	8002.65
827.5	54335.4	0.857855	7723.48
830	54390.7	0.856822	7787.57

Scattering (Csca), Extinction (Cext) and Backscattering (Cback) Cross Sections:
WL(nm)	Csca(um^2)	Cext(um^2)	Cback(um^2)
390	532.138	532.138	352.747
392.5	531.835	531.835	321.248
395	532.318	532.318	276.663
397.5	532.168	532.168	360.066
400	532.513	532.513	380.299
402.5	532.546	532.546	398.094
405	532.368	532.368	380.912
407.5	532.33	532.33	309.389
410	532.609	532.609	368.606
412.5	532.844	532.844	404.182
415	532.517	532.517	324.835
417.5	532.715	532.715	342.693
420	532.87	532.87	345.626
422.5	533.043	533.043	371.49
425	532.66	532.66	290.694
427.5	533.299	533.299	366.403
430	533.262	533.262	397.657
432.5	533.077	533.077	337.564
435	533.43	533.43	371.343
437.5	533.422	533.422	353.507
440	533.627	533.627	350.808
442.5	533.812	533.812	351.758
445	533.801	533.801	344.165
447.5	533.196	533.196	361.568
450	532.384	532.384	522.182
452.5	534.926	534.926	609.486
455	534.396	534.396	339.565
457.5	532.92	532.92	313.414
460	533.089	533.089	439.001
462.5	534.468	534.468	363.217
465	534.086	534.086	338.076
467.5	534.231	534.231	457.773
470	534.66	534.66	527.129
472.5	534.231	534.231	321.355
475	534.622	534.622	322.38
477.5	534.559	534.559	382.422
480	534.651	534.651	334.155
482.5	534.67	534.67	377.619
485	535.05	535.05	371.599
487.5	534.609	534.609	309.304
490	535.079	535.079	361.727
492.5	534.846	534.846	318.451
495	534.822	534.822	392.626
497.5	535.386	535.386	444.442
500	535.366	535.366	346.424
502.5	534.865	534.865	289.324
505	535.453	535.453	364.637
507.5	535.921	535.921	407.045
510	535.866	535.866	392.33
512.5	535.836	535.836	373.997
515	535.849	535.849	330.05
517.5	535.304	535.304	322.198
520	536.486	536.486	425.013
522.5	535.958	535.958	342.326
525	535.843	535.843	340.823
527.5	535.998	535.998	338.772
530	536.058	536.058	329.951
532.5	536.737	536.737	442.933
535	536.225	536.225	375.688
537.5	536.436	536.436	403.831
540	536.345	536.345	321.611
542.5	536.672	536.672	361.772
545	536.723	536.723	356.242
547.5	535.963	535.963	307.536
550	536.956	536.956	397.213
552.5	537.626	537.626	315.573
555	536.979	536.979	342.303
557.5	536.853	536.853	330.381
560	536.891	536.891	323.537
562.5	536.998	536.998	339.461
565	537.073	537.073	346.106
567.5	536.802	536.802	279.511
570	537.188	537.188	351.82
572.5	537.26	537.26	366.301
575	537.187	537.187	340.924
577.5	536.953	536.953	333.973
580	537.595	537.595	337.696
582.5	537.661	537.661	368.315
585	537.681	537.681	377.525
587.5	539.193	539.193	429.778
590	537.549	537.549	374.05
592.5	538.425	538.425	401.099
595	537.383	537.383	298.273
597.5	537.968	537.968	346.638
600	537.769	537.769	326.373
602.5	537.905	537.905	320.004
605	538.616	538.616	395.731
607.5	538.386	538.386	338.762
610	538.138	538.138	336
612.5	538.388	538.388	379.903
615	538.714	538.714	399.039
617.5	538.925	538.925	424.422
620	538.372	538.372	372.277
622.5	538.486	538.486	334.998
625	538.911	538.911	347.107
627.5	539.105	539.105	400.522
630	538.179	538.179	313.984
632.5	538.946	538.946	361.816
635	538.653	538.653	326.156
637.5	538.53	538.53	311.973
640	539.049	539.049	354.55
642.5	539.01	539.01	360.293
645	539.221	539.221	350.397
647.5	539.494	539.494	377.906
650	539.295	539.295	342.002
652.5	540.079	540.079	431.815
655	539.83	539.83	382.543
657.5	539.49	539.49	343.068
660	539.196	539.196	344.445
662.5	540.291	540.291	375.607
665	539.493	539.493	360.109
667.5	539.079	539.079	354.861
670	540.702	540.702	315.197
672.5	541.487	541.487	440.394
675	536.207	536.207	323.377
677.5	543.082	543.082	238.115
680	539.871	539.871	542.23
682.5	538.684	538.684	268.694
685	542.591	542.591	404.261
687.5	542.748	542.748	409.797
690	540.363	540.363	520.361
692.5	538.96	538.96	358.434
695	542.565	542.565	387.245
697.5	540.065	540.065	315.798
700	540.704	540.704	477.776
702.5	540.852	540.852	150.39
705	540.829	540.829	506.814
707.5	541.043	541.043	415.638
710	540.694	540.694	272.697
712.5	540.992	540.992	375.207
715	541.081	541.081	386.035
717.5	541.162	541.162	299.115
720	541.096	541.096	363.537
722.5	541.394	541.394	324.622
725	541.213	541.213	330.057
727.5	541.836	541.836	387.055
730	541.744	541.744	374.498
732.5	542.109	542.109	414.061
735	541.589	541.589	361.185
737.5	541.838	541.838	342.352
740	541.233	541.233	346.663
742.5	541.782	541.782	344.923
745	541.742	541.742	289.312
747.5	541.999	541.999	418.38
750	541.963	541.963	323.103
752.5	542.299	542.299	366.291
755	541.773	541.773	336.805
757.5	542.172	542.172	369.564
760	543.124	543.124	425.919
762.5	542.448	542.448	400.886
765	542.327	542.327	360.183
767.5	542.398	542.398	363.465
770	542.123	542.123	346.844
772.5	542.419	542.419	337.81
775	541.921	541.921	305.803
777.5	542.645	542.645	346.678
780	542.718	542.718	362.365
782.5	541.985	541.985	302.82
785	542.723	542.723	366.373
787.5	542.467	542.467	321.235
790	543.316	543.316	351.259
792.5	543.06	543.06	341.977
795	542.868	542.868	339.839
797.5	543.544	543.544	451.757
800	543.004	543.004	354.472
802.5	543.399	543.399	372.861
805	543.551	543.551	383.061
807.5	543.234	543.234	342.368
810	543.267	543.267	339.892
812.5	543.144	543.144	355.969
815	543.717	543.717	336.505
817.5	543.884	543.884	399.27
820	543.561	543.561	358.514
822.5	543.752	543.752	382.474
825	545.983	545.983	434.548
827.5	543.354	543.354	317.158
830	543.907	543.907	332.906

Forward and Backward Scattering percentages:
WL(nm)	Forward %	Backward %
390	96.5524	3.44758
392.5	96.5747	3.42529
395	96.555	3.44498
397.5	96.5533	3.44669
400	96.5351	3.46492
402.5	96.536	3.46401
405	96.5448	3.4552
407.5	96.5545	3.4455
410	96.5418	3.4582
412.5	96.5272	3.47278
415	96.5573	3.44272
417.5	96.5347	3.4653
420	96.5358	3.46425
422.5	96.5256	3.47444
425	96.5533	3.44667
427.5	96.5116	3.48842
430	96.5094	3.49064
432.5	96.5225	3.47747
435	96.5069	3.49306
437.5	96.5129	3.4871
440	96.498	3.50205
442.5	96.5052	3.49484
445	96.5131	3.4869
447.5	96.5368	3.46316
450	96.4863	3.51371
452.5	96.3879	3.61208
455	96.4689	3.53107
457.5	96.5643	3.43572
460	96.5679	3.43209
462.5	96.4644	3.53565
465	96.4869	3.51313
467.5	96.4795	3.52047
470	96.4592	3.54083
472.5	96.483	3.51701
475	96.4649	3.53513
477.5	96.4688	3.53115
480	96.4611	3.53886
482.5	96.4601	3.53986
485	96.4365	3.56348
487.5	96.4859	3.5141
490	96.4467	3.55334
492.5	96.4615	3.53855
495	96.4634	3.5366
497.5	96.4326	3.56737
500	96.4296	3.57041
502.5	96.4668	3.5332
505	96.4325	3.56752
507.5	96.4071	3.59286
510	96.4164	3.58355
512.5	96.4195	3.58055
515	96.4119	3.58813
517.5	96.4628	3.53723
520	96.3945	3.60546
522.5	96.415	3.58498
525	96.4289	3.57109
527.5	96.4193	3.58067
530	96.4163	3.58374
532.5	96.3726	3.62744
535	96.4129	3.58706
537.5	96.3946	3.60541
540	96.4274	3.57256
542.5	96.3887	3.61128
545	96.3925	3.60755
547.5	96.4437	3.55626
550	96.3977	3.60226
552.5	96.3586	3.6414
555	96.3759	3.62409
557.5	96.3876	3.61237
560	96.3825	3.61752
562.5	96.3855	3.61452
565	96.3803	3.61967
567.5	96.3999	3.60014
570	96.374	3.62599
572.5	96.3771	3.62287
575	96.3787	3.62127
577.5	96.3966	3.60345
580	96.3587	3.64125
582.5	96.3606	3.63935
585	96.3523	3.64768
587.5	96.233	3.76704
590	96.3483	3.65171
592.5	96.3212	3.67883
595	96.3753	3.62472
597.5	96.3408	3.65919
600	96.3648	3.63516
602.5	96.367	3.633
605	96.3211	3.67895
607.5	96.3518	3.64824
610	96.3478	3.65219
612.5	96.3126	3.68744
615	96.329	3.67103
617.5	96.2593	3.74067
620	96.3665	3.63352
622.5	96.3	3.70002
625	96.3206	3.67944
627.5	96.2914	3.70856
630	96.3562	3.64384
632.5	96.3164	3.68357
635	96.3279	3.67212
637.5	96.3445	3.65555
640	96.313	3.687
642.5	96.3169	3.68306
645	96.2938	3.70625
647.5	96.2927	3.70734
650	96.2916	3.70838
652.5	96.2431	3.75695
655	96.2636	3.73641
657.5	96.2948	3.7052
660	96.3003	3.69974
662.5	96.293	3.70704
665	96.2616	3.73838
667.5	96.2703	3.72968
670	96.3981	3.60194
672.5	96.0169	3.98306
675	96.5437	3.4563
677.5	96.2017	3.79833
680	96.2051	3.79489
682.5	96.3764	3.62357
685	96.1251	3.87494
687.5	96.1565	3.84352
690	96.3188	3.68123
692.5	96.337	3.66304
695	96.1271	3.87294
697.5	96.2717	3.72829
700	96.2425	3.75754
702.5	96.2469	3.75311
705	96.2301	3.7699
707.5	96.238	3.76197
710	96.2562	3.7438
712.5	96.232	3.76801
715	96.2318	3.76822
717.5	96.2372	3.76285
720	96.2452	3.75485
722.5	96.2287	3.77131
725	96.2341	3.76594
727.5	96.2005	3.79946
730	96.2119	3.78809
732.5	96.1783	3.82174
735	96.2153	3.78468
737.5	96.2143	3.78572
740	96.2328	3.76724
742.5	96.2045	3.79549
745	96.2143	3.78575
747.5	96.1818	3.8182
750	96.2037	3.79631
752.5	96.1826	3.81741
755	96.2162	3.78379
757.5	96.1928	3.80724
760	96.1497	3.85035
762.5	96.1698	3.8302
765	96.195	3.80499
767.5	96.1844	3.81561
770	96.2163	3.78367
772.5	96.1886	3.81137
775	96.2297	3.77034
777.5	96.1851	3.81494
780	96.155	3.84495
782.5	96.2321	3.76786
785	96.1706	3.82941
787.5	96.1821	3.81794
790	96.1364	3.86362
792.5	96.1525	3.84746
795	96.1702	3.8298
797.5	96.1138	3.88617
800	96.1691	3.83092
802.5	96.1533	3.8467
805	96.1388	3.86118
807.5	96.1533	3.8467
810	96.1551	3.84495
812.5	96.1543	3.84573
815	96.1405	3.85949
817.5	96.1253	3.87468
820	96.1284	3.87157
822.5	96.0717	3.92826
825	96.007	3.99298
827.5	96.1545	3.84549
830	96.146	3.85404

