Simulation parameters:

Distribution: Poly Disperse - Log Normal 
Number of discrete sphere sizes: 101
Mean diameter of spheres: 15 um
Std. deviation: 0.25 um
Total Concentration (Spheres in a volume of 1mm^3): 1e+08

Wavelength Range: 390nm to 830nm in 2.5nm steps

Sphere and Medium Data:
Dia.(um)	Num. Den.(in a vol. of 1mm^3)	Ref. Index of sphere (real | imag)
5.37227	2038	1.333	0	1
5.68809	4794	1.333	0	1
6.00391	10260	1.333	0	1
6.31973	20227	1.333	0	1
6.63554	37102	1.333	0	1
6.95136	63857	1.333	0	1
7.26718	103874	1.333	0	1
7.583	160679	1.333	0	1
7.89882	237611	1.333	0	1
8.21464	337453	1.333	0	1
8.53046	462092	1.333	0	1
8.84628	612244	1.333	0	1
9.1621	787277	1.333	0	1
9.47791	985164	1.333	0	1
9.79373	1.20256e+06	1.333	0	1
10.1096	1.43496e+06	1.333	0	1
10.4254	1.677e+06	1.333	0	1
10.7412	1.92274e+06	1.333	0	1
11.057	2.16604e+06	1.333	0	1
11.3728	2.40085e+06	1.333	0	1
11.6886	2.6215e+06	1.333	0	1
12.0045	2.823e+06	1.333	0	1
12.3203	3.00116e+06	1.333	0	1
12.6361	3.15271e+06	1.333	0	1
12.9519	3.27539e+06	1.333	0	1
13.2677	3.3679e+06	1.333	0	1
13.5836	3.42989e+06	1.333	0	1
13.8994	3.46182e+06	1.333	0	1
14.2152	3.46489e+06	1.333	0	1
14.531	3.44092e+06	1.333	0	1
14.8468	3.39216e+06	1.333	0	1
15.1627	3.32121e+06	1.333	0	1
15.4785	3.23089e+06	1.333	0	1
15.7943	3.12411e+06	1.333	0	1
16.1101	3.00377e+06	1.333	0	1
16.4259	2.87273e+06	1.333	0	1
16.7417	2.73367e+06	1.333	0	1
17.0576	2.58911e+06	1.333	0	1
17.3734	2.44133e+06	1.333	0	1
17.6892	2.29239e+06	1.333	0	1
18.005	2.14406e+06	1.333	0	1
18.3208	1.99789e+06	1.333	0	1
18.6367	1.85517e+06	1.333	0	1
18.9525	1.71694e+06	1.333	0	1
19.2683	1.58406e+06	1.333	0	1
19.5841	1.45715e+06	1.333	0	1
19.8999	1.33666e+06	1.333	0	1
20.2158	1.22291e+06	1.333	0	1
20.5316	1.11605e+06	1.333	0	1
20.8474	1.01613e+06	1.333	0	1
21.1632	923083	1.333	0	1
21.479	836788	1.333	0	1
21.7949	757044	1.333	0	1
22.1107	683602	1.333	0	1
22.4265	616179	1.333	0	1
22.7423	554463	1.333	0	1
23.0581	498126	1.333	0	1
23.3739	446832	1.333	0	1
23.6898	400241	1.333	0	1
24.0056	358020	1.333	0	1
24.3214	319837	1.333	0	1
24.6372	285377	1.333	0	1
24.953	254335	1.333	0	1
25.2689	226420	1.333	0	1
25.5847	201360	1.333	0	1
25.9005	178897	1.333	0	1
26.2163	158792	1.333	0	1
26.5321	140822	1.333	0	1
26.848	124782	1.333	0	1
27.1638	110482	1.333	0	1
27.4796	97749	1.333	0	1
27.7954	86422	1.333	0	1
28.1112	76357	1.333	0	1
28.4271	67422	1.333	0	1
28.7429	59497	1.333	0	1
29.0587	52475	1.333	0	1
29.3745	46258	1.333	0	1
29.6903	40757	1.333	0	1
30.0061	35893	1.333	0	1
30.322	31597	1.333	0	1
30.6378	27803	1.333	0	1
30.9536	24456	1.333	0	1
31.2694	21504	1.333	0	1
31.5852	18902	1.333	0	1
31.9011	16610	1.333	0	1
32.2169	14591	1.333	0	1
32.5327	12815	1.333	0	1
32.8485	11251	1.333	0	1
33.1643	9877	1.333	0	1
33.4802	8668	1.333	0	1
33.796	7606	1.333	0	1
34.1118	6673	1.333	0	1
34.4276	5854	1.333	0	1
34.7434	5134	1.333	0	1
35.0592	4502	1.333	0	1
35.3751	3948	1.333	0	1
35.6909	3461	1.333	0	1
36.0067	3034	1.333	0	1
36.3225	2660	1.333	0	1
36.6383	2332	1.333	0	1
36.9542	2044	1.333	0	1


Output:


Scattering Coefficient (us), g and Reduced Scattering Coefficient (us'):
WL(nm)	us(mm^-1)	g	us'(mm^-1)
390	41544.9	0.867718	5495.65
392.5	41562.9	0.867356	5513.07
395	41505.6	0.870293	5383.58
397.5	41369.9	0.874974	5172.33
400	41461.3	0.870109	5385.46
402.5	41545.3	0.86752	5503.94
405	41583.9	0.867343	5516.37
407.5	41579.6	0.867468	5510.63
410	41596.1	0.867075	5529.15
412.5	41592.4	0.867184	5524.13
415	41607	0.86685	5539.96
417.5	41614.2	0.866867	5540.21
420	41620.1	0.866597	5552.25
422.5	41601.1	0.867325	5519.43
425	41645.3	0.866317	5567.27
427.5	41655.3	0.866165	5574.93
430	41669.8	0.865852	5589.94
432.5	41657.2	0.866216	5573.07
435	41677.6	0.865868	5590.28
437.5	41669	0.866072	5580.65
440	41663.1	0.866216	5573.86
442.5	41645.1	0.866597	5555.57
445	41698.9	0.865572	5605.5
447.5	41689.7	0.865834	5593.34
450	41719.7	0.86524	5622.15
452.5	41735	0.864885	5639
455	41720.8	0.865117	5627.42
457.5	41736.5	0.865036	5632.91
460	41755.4	0.864741	5647.79
462.5	41707	0.865752	5599.09
465	41729.6	0.865299	5621.02
467.5	41762.7	0.864672	5651.67
470	41762.5	0.86464	5652.96
472.5	41716.3	0.865841	5596.59
475	41744.7	0.865014	5634.96
477.5	41770.7	0.864175	5673.49
480	41747.2	0.865192	5627.85
482.5	41785.5	0.864656	5655.4
485	41782	0.864639	5655.66
487.5	41856.7	0.863337	5720.27
490	41827	0.86374	5699.33
492.5	41785.5	0.864641	5656.04
495	41823.8	0.863885	5692.85
497.5	41801	0.864389	5668.67
500	41832.4	0.863812	5697.09
502.5	41806.7	0.864396	5669.14
505	41851.9	0.863484	5713.47
507.5	41837	0.863838	5696.61
510	41896.9	0.862628	5755.45
512.5	41838.9	0.863884	5694.95
515	41836.9	0.863977	5690.79
517.5	41800.3	0.864767	5652.76
520	41881.8	0.862809	5745.79
522.5	41836.6	0.864078	5686.5
525	41837.8	0.864041	5688.22
527.5	41877.1	0.863352	5722.4
530	41875.3	0.863397	5720.29
532.5	41899	0.862959	5741.89
535	41918.1	0.862628	5758.36
537.5	41948.3	0.861973	5789.99
540	41903.2	0.863082	5737.3
542.5	41936.9	0.862345	5772.81
545	41932.9	0.86244	5768.28
547.5	41937.1	0.862582	5762.91
550	41938.2	0.862327	5773.75
552.5	41979	0.86176	5803.15
555	41946.9	0.86229	5776.5
557.5	41968.3	0.861959	5793.33
560	41975.5	0.861825	5799.96
562.5	41927	0.8628	5752.38
565	41964.1	0.862168	5783.97
567.5	41974.2	0.861909	5796.27
570	41963.5	0.862271	5779.59
572.5	41992.7	0.861696	5807.75
575	41989.8	0.861697	5807.29
577.5	41994.6	0.861809	5803.27
580	42006	0.861522	5816.92
582.5	41977.6	0.861899	5797.13
585	42060	0.861592	5821.45
587.5	41968.3	0.860168	5868.49
590	42036.2	0.863678	5730.47
592.5	42194.8	0.857222	6024.5
595	41799.6	0.86333	5712.77
597.5	42155.8	0.864346	5718.6
600	42031.5	0.856223	6043.17
602.5	41963.9	0.864746	5675.77
605	42088.5	0.859587	5909.77
607.5	41971.4	0.861896	5796.42
610	42184.3	0.85825	5979.61
612.5	42046.8	0.861352	5829.7
615	42057.3	0.860913	5849.62
617.5	42100.5	0.860181	5886.44
620	42101.2	0.860305	5881.35
622.5	42106.4	0.859954	5896.84
625	42134	0.859745	5909.49
627.5	42114.8	0.860013	5895.51
630	42138.9	0.859549	5918.44
632.5	42125.9	0.859902	5901.75
635	42121.2	0.860033	5895.59
637.5	42150.1	0.859448	5924.29
640	42146.8	0.859567	5918.8
642.5	42158.6	0.85937	5928.76
645	42146.8	0.859647	5915.43
647.5	42160.3	0.859413	5927.19
650	42189.5	0.858832	5955.8
652.5	42211.9	0.858405	5976.98
655	42167.4	0.859372	5929.93
657.5	42197.8	0.858794	5958.57
660	42171.7	0.859432	5927.99
662.5	42179	0.859264	5936.12
665	42182.8	0.859194	5939.59
667.5	42184.6	0.859204	5939.42
670	42207.3	0.858745	5961.98
672.5	42231	0.858314	5983.55
675	42222.7	0.858559	5972
677.5	42212.6	0.858777	5961.4
680	42305	0.856953	6051.62
682.5	42238.7	0.85834	5983.54
685	42241.9	0.858256	5987.54
687.5	42255.6	0.858048	5998.25
690	42210.7	0.858746	5962.45
692.5	42228.2	0.858712	5966.32
695	42227.5	0.858689	5967.22
697.5	42332.7	0.856717	6065.54
700	42336	0.856627	6069.82
702.5	42353.9	0.856304	6086.08
705	42300.1	0.857449	6029.91
707.5	42360.9	0.856214	6090.9
710	42322.9	0.857023	6051.21
712.5	42293.3	0.85766	6020.02
715	42340	0.856754	6065.04
717.5	42291.5	0.857813	6013.32
720	42307.8	0.857406	6032.85
722.5	42358.8	0.856348	6084.92
725	42431.3	0.855136	6146.77
727.5	42456.1	0.855138	6150.26
730	42349.3	0.856877	6061.16
732.5	42336.7	0.857006	6053.9
735	42265.9	0.85841	5984.45
737.5	42350.6	0.856742	6067.06
740	42355	0.856799	6065.28
742.5	42346.6	0.856982	6056.34
745	42377.2	0.856409	6084.98
747.5	42408	0.855804	6115.07
750	42362.9	0.856702	6070.52
752.5	42373.7	0.85666	6073.84
755	42392.3	0.856201	6095.98
757.5	42444.5	0.855244	6144.12
760	42438.4	0.855313	6140.27
762.5	42409	0.856021	6106.03
765	42501.5	0.854202	6196.64
767.5	42466	0.854922	6160.88
770	42459.8	0.85506	6154.13
772.5	42459.3	0.855114	6151.74
775	42427.7	0.855818	6117.31
777.5	42440.7	0.855584	6129.11
780	42467.2	0.855132	6152.13
782.5	42440.6	0.855603	6128.31
785	42514.3	0.854195	6198.8
787.5	42454.1	0.855488	6135.13
790	42474.3	0.854802	6167.16
792.5	42504.6	0.854924	6166.38
795	42497.9	0.853906	6208.68
797.5	42472	0.855962	6117.58
800	42508.8	0.854042	6204.49
802.5	42466.8	0.855356	6142.55
805	42446.4	0.855606	6129.01
807.5	42554.7	0.8535	6234.26
810	42405.1	0.85631	6093.21
812.5	42662.8	0.851973	6315.25
815	42359.7	0.857105	6052.98
817.5	42568.5	0.853846	6221.53
820	42564.9	0.853418	6239.25
822.5	42509.2	0.854695	6176.8
825	42629.7	0.852458	6289.68
827.5	42566	0.853834	6221.69
830	42506.8	0.855104	6159.06

Scattering (Csca), Extinction (Cext) and Backscattering (Cback) Cross Sections:
WL(nm)	Csca(um^2)	Cext(um^2)	Cback(um^2)
390	415.449	415.449	282.285
392.5	415.629	415.629	273.921
395	415.056	415.056	253.314
397.5	413.699	413.699	227.911
400	414.613	414.613	275.768
402.5	415.453	415.453	275.259
405	415.839	415.839	235.974
407.5	415.796	415.796	256.274
410	415.961	415.961	268.117
412.5	415.924	415.924	356.398
415	416.07	416.07	403.192
417.5	416.142	416.142	259.224
420	416.201	416.201	257.702
422.5	416.011	416.011	234.502
425	416.453	416.453	282.922
427.5	416.553	416.553	270.846
430	416.698	416.698	308.471
432.5	416.572	416.572	286.701
435	416.776	416.776	279.177
437.5	416.69	416.69	253.395
440	416.631	416.631	264.162
442.5	416.451	416.451	241.338
445	416.989	416.989	299.885
447.5	416.897	416.897	289.14
450	417.197	417.197	305.447
452.5	417.35	417.35	294.184
455	417.208	417.208	269.213
457.5	417.365	417.365	330.228
460	417.554	417.554	302.575
462.5	417.07	417.07	249.803
465	417.296	417.296	267.893
467.5	417.627	417.627	294.96
470	417.625	417.625	282.56
472.5	417.163	417.163	235.462
475	417.447	417.447	249.636
477.5	417.707	417.707	343.051
480	417.472	417.472	258.313
482.5	417.855	417.855	251.059
485	417.82	417.82	301.187
487.5	418.567	418.567	245.689
490	418.27	418.27	276.612
492.5	417.855	417.855	271.045
495	418.238	418.238	310.782
497.5	418.01	418.01	289.036
500	418.324	418.324	309.178
502.5	418.067	418.067	232.5
505	418.519	418.519	289.651
507.5	418.37	418.37	278.242
510	418.969	418.969	291.607
512.5	418.389	418.389	256.016
515	418.369	418.369	260.011
517.5	418.003	418.003	242.128
520	418.818	418.818	278.144
522.5	418.366	418.366	253.375
525	418.378	418.378	232.22
527.5	418.771	418.771	255.74
530	418.753	418.753	246.294
532.5	418.99	418.99	280.319
535	419.181	419.181	291.032
537.5	419.483	419.483	328.845
540	419.032	419.032	282.828
542.5	419.369	419.369	307.048
545	419.329	419.329	276.746
547.5	419.371	419.371	265.798
550	419.382	419.382	272.394
552.5	419.79	419.79	287.167
555	419.469	419.469	271.073
557.5	419.683	419.683	272.639
560	419.755	419.755	285.377
562.5	419.27	419.27	242.885
565	419.641	419.641	282.033
567.5	419.742	419.742	263.431
570	419.635	419.635	263.613
572.5	419.927	419.927	242.041
575	419.898	419.898	292.841
577.5	419.946	419.946	267.217
580	420.06	420.06	285.79
582.5	419.776	419.776	260.907
585	420.6	420.6	270.511
587.5	419.683	419.683	287.77
590	420.362	420.362	282.419
592.5	421.948	421.948	276.384
595	417.996	417.996	336.05
597.5	421.558	421.558	116.722
600	420.315	420.315	422.151
602.5	419.639	419.639	202.417
605	420.885	420.885	306.254
607.5	419.714	419.714	204.154
610	421.843	421.843	216.798
612.5	420.468	420.468	202.8
615	420.573	420.573	223.6
617.5	421.005	421.005	370.298
620	421.012	421.012	95.7154
622.5	421.064	421.064	400.019
625	421.34	421.34	204.217
627.5	421.148	421.148	234.299
630	421.389	421.389	327.125
632.5	421.259	421.259	235.52
635	421.212	421.212	285.164
637.5	421.501	421.501	252.733
640	421.468	421.468	256.957
642.5	421.586	421.586	276.234
645	421.468	421.468	264.637
647.5	421.603	421.603	286.939
650	421.895	421.895	295.371
652.5	422.119	422.119	323.976
655	421.674	421.674	279.68
657.5	421.978	421.978	245.806
660	421.717	421.717	315.368
662.5	421.79	421.79	251.148
665	421.828	421.828	295.845
667.5	421.846	421.846	276.97
670	422.073	422.073	287.141
672.5	422.31	422.31	282.592
675	422.227	422.227	280.419
677.5	422.126	422.126	252.45
680	423.05	423.05	294.926
682.5	422.387	422.387	279.007
685	422.419	422.419	281.431
687.5	422.556	422.556	279.539
690	422.107	422.107	268.777
692.5	422.282	422.282	254.713
695	422.275	422.275	236.14
697.5	423.327	423.327	336.099
700	423.36	423.36	327.799
702.5	423.539	423.539	296.309
705	423.001	423.001	271.215
707.5	423.609	423.609	295.036
710	423.229	423.229	286.315
712.5	422.933	422.933	266.549
715	423.4	423.4	284.062
717.5	422.915	422.915	251.408
720	423.078	423.078	276.492
722.5	423.588	423.588	287.739
725	424.313	424.313	313.841
727.5	424.561	424.561	303.538
730	423.493	423.493	277.458
732.5	423.367	423.367	248.254
735	422.659	422.659	203.069
737.5	423.506	423.506	268.389
740	423.55	423.55	266.765
742.5	423.466	423.466	273.814
745	423.772	423.772	286.993
747.5	424.08	424.08	301.711
750	423.629	423.629	224.747
752.5	423.737	423.737	258.586
755	423.923	423.923	274.659
757.5	424.445	424.445	291.456
760	424.384	424.384	277.399
762.5	424.09	424.09	267.378
765	425.015	425.015	277.434
767.5	424.66	424.66	300.066
770	424.598	424.598	312.167
772.5	424.593	424.593	302.62
775	424.277	424.277	269.561
777.5	424.407	424.407	300.793
780	424.672	424.672	283.525
782.5	424.406	424.406	274.776
785	425.142	425.142	322.433
787.5	424.541	424.541	256.392
790	424.743	424.743	302.425
792.5	425.046	425.046	314.51
795	424.979	424.979	307.242
797.5	424.72	424.72	247.875
800	425.088	425.088	317.11
802.5	424.668	424.668	253.984
805	424.464	424.464	266.705
807.5	425.547	425.547	291.531
810	424.051	424.051	245.52
812.5	426.628	426.628	259.719
815	423.597	423.597	250.13
817.5	425.685	425.685	241.482
820	425.649	425.649	267.497
822.5	425.092	425.092	247.061
825	426.297	426.297	432.485
827.5	425.66	425.66	259.763
830	425.068	425.068	249.317

Forward and Backward Scattering percentages:
WL(nm)	Forward %	Backward %
390	96.499	3.501
392.5	96.4982	3.50184
395	96.5778	3.42222
397.5	96.752	3.24797
400	96.5993	3.4007
402.5	96.5046	3.4954
405	96.4955	3.50453
407.5	96.4834	3.51657
410	96.4791	3.5209
412.5	96.4795	3.52047
415	96.4711	3.52891
417.5	96.4617	3.53834
420	96.4558	3.5442
422.5	96.4914	3.50861
425	96.463	3.53696
427.5	96.44	3.56004
430	96.4304	3.56964
432.5	96.4493	3.55068
435	96.4342	3.56584
437.5	96.4396	3.56035
440	96.453	3.54698
442.5	96.4623	3.5377
445	96.4305	3.56946
447.5	96.4251	3.57488
450	96.4164	3.58355
452.5	96.4016	3.59836
455	96.4338	3.56619
457.5	96.4181	3.58191
460	96.3939	3.60608
462.5	96.4315	3.56852
465	96.4181	3.58194
467.5	96.3992	3.60076
470	96.3905	3.60946
472.5	96.4458	3.55416
475	96.4123	3.58771
477.5	96.3709	3.62913
480	96.4151	3.5849
482.5	96.41	3.58995
485	96.3958	3.60416
487.5	96.3586	3.6414
490	96.3771	3.62292
492.5	96.3959	3.6041
495	96.3725	3.62754
497.5	96.3827	3.61731
500	96.367	3.633
502.5	96.3921	3.60794
505	96.3623	3.63773
507.5	96.3631	3.63689
510	96.3418	3.6582
512.5	96.3693	3.63072
515	96.38	3.62003
517.5	96.3959	3.60414
520	96.364	3.63598
522.5	96.3823	3.61773
525	96.3753	3.62472
527.5	96.3551	3.64486
530	96.3602	3.6398
532.5	96.3381	3.66189
535	96.3347	3.66532
537.5	96.3079	3.69213
540	96.341	3.65902
542.5	96.3401	3.65988
545	96.2901	3.70994
547.5	96.3479	3.65209
550	96.3245	3.67545
552.5	96.2913	3.70869
555	96.3252	3.67476
557.5	96.3057	3.69431
560	96.3102	3.68975
562.5	96.3445	3.65555
565	96.3149	3.68505
567.5	96.3202	3.67977
570	96.3166	3.68342
572.5	96.2935	3.70648
575	96.3004	3.69958
577.5	96.2956	3.70437
580	96.2879	3.71206
582.5	96.3037	3.69631
585	96.2957	3.70434
587.5	96.2479	3.75213
590	96.3208	3.67924
592.5	96.2409	3.75908
595	96.2613	3.73871
597.5	96.3754	3.62456
600	96.2051	3.79489
602.5	96.3369	3.66305
605	96.2084	3.79156
607.5	96.31	3.68998
610	96.1508	3.84919
612.5	96.2804	3.7196
615	96.2676	3.73245
617.5	96.2394	3.76056
620	96.2528	3.74719
622.5	96.2261	3.77395
625	96.2291	3.77094
627.5	96.245	3.75496
630	96.2209	3.77914
632.5	96.2396	3.7604
635	96.2412	3.75884
637.5	96.2287	3.77131
640	96.2239	3.77609
642.5	96.2222	3.77778
645	96.2315	3.7685
647.5	96.2067	3.79331
650	96.1987	3.80128
652.5	96.175	3.82505
655	96.2232	3.77676
657.5	96.2016	3.79843
660	96.2325	3.7675
662.5	96.2146	3.78541
665	96.1974	3.80256
667.5	96.2084	3.79162
670	96.1982	3.80185
672.5	96.176	3.82405
675	96.195	3.80499
677.5	96.1984	3.80163
680	96.1315	3.86848
682.5	96.1949	3.8051
685	96.1761	3.82393
687.5	96.1718	3.82815
690	96.2084	3.79164
692.5	96.1891	3.81089
695	96.1976	3.8024
697.5	96.1291	3.87095
700	96.1256	3.87436
702.5	96.1084	3.89158
705	96.1651	3.83492
707.5	96.1067	3.89326
710	96.1356	3.8644
712.5	96.1533	3.8467
715	96.1389	3.86114
717.5	96.1618	3.83819
720	96.1583	3.84167
722.5	96.1081	3.89191
725	96.0789	3.92111
727.5	96.0298	3.97017
730	96.1048	3.8952
732.5	96.1501	3.84992
735	96.1963	3.80373
737.5	96.1427	3.85735
740	96.1391	3.86089
742.5	96.1368	3.86318
745	96.1237	3.87629
747.5	96.0887	3.91134
750	96.1334	3.86656
752.5	96.1477	3.85231
755	96.1098	3.89019
757.5	96.0873	3.91274
760	96.084	3.91599
762.5	96.1198	3.88021
765	96.0404	3.95964
767.5	96.0798	3.92023
770	96.0755	3.92451
772.5	96.0746	3.92538
775	96.1018	3.89825
777.5	96.089	3.91104
780	96.085	3.91503
782.5	96.0818	3.91816
785	96.0392	3.96079
787.5	96.0833	3.91669
790	96.0505	3.94947
792.5	96.0748	3.92525
795	96.0059	3.99414
797.5	96.1103	3.88974
800	96.0451	3.95491
802.5	96.0643	3.93575
805	96.1107	3.88931
807.5	96.0278	3.97218
810	96.0968	3.90323
812.5	95.9603	4.03972
815	96.1763	3.82374
817.5	95.9856	4.0144
820	96.0416	3.95844
822.5	96.0452	3.95485
825	95.9755	4.02447
827.5	96.0343	3.96571
830	96.0647	3.93527

