Simulation parameters:

Distribution: Poly Disperse - Log Normal 
Number of discrete sphere sizes: 101
Mean diameter of spheres: 11.5 um
Std. deviation: 0.25 um
Total Concentration (Spheres in a volume of 1mm^3): 1e+08

Wavelength Range: 390nm to 830nm in 2.5nm steps

Sphere and Medium Data:
Dia.(um)	Num. Den.(in a vol. of 1mm^3)	Ref. Index of sphere (real | imag)
4.11874	2038	1.333	0	1
4.36087	4794	1.333	0	1
4.60299	10260	1.333	0	1
4.84512	20227	1.333	0	1
5.08725	37102	1.333	0	1
5.32938	63857	1.333	0	1
5.57151	103874	1.333	0	1
5.81363	160679	1.333	0	1
6.05576	237611	1.333	0	1
6.29789	337453	1.333	0	1
6.54002	462092	1.333	0	1
6.78215	612244	1.333	0	1
7.02427	787277	1.333	0	1
7.2664	985164	1.333	0	1
7.50853	1.20256e+06	1.333	0	1
7.75066	1.43496e+06	1.333	0	1
7.99278	1.677e+06	1.333	0	1
8.23491	1.92274e+06	1.333	0	1
8.47704	2.16604e+06	1.333	0	1
8.71917	2.40085e+06	1.333	0	1
8.9613	2.6215e+06	1.333	0	1
9.20342	2.823e+06	1.333	0	1
9.44555	3.00116e+06	1.333	0	1
9.68768	3.15271e+06	1.333	0	1
9.92981	3.27539e+06	1.333	0	1
10.1719	3.3679e+06	1.333	0	1
10.4141	3.42989e+06	1.333	0	1
10.6562	3.46182e+06	1.333	0	1
10.8983	3.46489e+06	1.333	0	1
11.1404	3.44092e+06	1.333	0	1
11.3826	3.39216e+06	1.333	0	1
11.6247	3.32121e+06	1.333	0	1
11.8668	3.23089e+06	1.333	0	1
12.109	3.12411e+06	1.333	0	1
12.3511	3.00377e+06	1.333	0	1
12.5932	2.87273e+06	1.333	0	1
12.8353	2.73367e+06	1.333	0	1
13.0775	2.58911e+06	1.333	0	1
13.3196	2.44133e+06	1.333	0	1
13.5617	2.29239e+06	1.333	0	1
13.8039	2.14406e+06	1.333	0	1
14.046	1.99789e+06	1.333	0	1
14.2881	1.85517e+06	1.333	0	1
14.5302	1.71694e+06	1.333	0	1
14.7724	1.58406e+06	1.333	0	1
15.0145	1.45715e+06	1.333	0	1
15.2566	1.33666e+06	1.333	0	1
15.4987	1.22291e+06	1.333	0	1
15.7409	1.11605e+06	1.333	0	1
15.983	1.01613e+06	1.333	0	1
16.2251	923083	1.333	0	1
16.4673	836788	1.333	0	1
16.7094	757044	1.333	0	1
16.9515	683602	1.333	0	1
17.1936	616179	1.333	0	1
17.4358	554463	1.333	0	1
17.6779	498126	1.333	0	1
17.92	446832	1.333	0	1
18.1622	400241	1.333	0	1
18.4043	358020	1.333	0	1
18.6464	319837	1.333	0	1
18.8885	285377	1.333	0	1
19.1307	254335	1.333	0	1
19.3728	226420	1.333	0	1
19.6149	201360	1.333	0	1
19.857	178897	1.333	0	1
20.0992	158792	1.333	0	1
20.3413	140822	1.333	0	1
20.5834	124782	1.333	0	1
20.8256	110482	1.333	0	1
21.0677	97749	1.333	0	1
21.3098	86422	1.333	0	1
21.5519	76357	1.333	0	1
21.7941	67422	1.333	0	1
22.0362	59497	1.333	0	1
22.2783	52475	1.333	0	1
22.5205	46258	1.333	0	1
22.7626	40757	1.333	0	1
23.0047	35893	1.333	0	1
23.2468	31597	1.333	0	1
23.489	27803	1.333	0	1
23.7311	24456	1.333	0	1
23.9732	21504	1.333	0	1
24.2154	18902	1.333	0	1
24.4575	16610	1.333	0	1
24.6996	14591	1.333	0	1
24.9417	12815	1.333	0	1
25.1839	11251	1.333	0	1
25.426	9877	1.333	0	1
25.6681	8668	1.333	0	1
25.9102	7606	1.333	0	1
26.1524	6673	1.333	0	1
26.3945	5854	1.333	0	1
26.6366	5134	1.333	0	1
26.8788	4502	1.333	0	1
27.1209	3948	1.333	0	1
27.363	3461	1.333	0	1
27.6051	3034	1.333	0	1
27.8473	2660	1.333	0	1
28.0894	2332	1.333	0	1
28.3315	2044	1.333	0	1


Output:


Scattering Coefficient (us), g and Reduced Scattering Coefficient (us'):
WL(nm)	us(mm^-1)	g	us'(mm^-1)
390	24587.4	0.863972	3344.57
392.5	24600.7	0.863479	3358.51
395	24621.4	0.862864	3376.47
397.5	24629.2	0.862108	3396.17
400	24591.4	0.864018	3343.98
402.5	24591.3	0.864041	3343.41
405	24624.8	0.862986	3373.95
407.5	24621.2	0.863123	3370.08
410	24625.5	0.863127	3370.56
412.5	24629.4	0.862919	3376.21
415	24654.9	0.862452	3391.23
417.5	24654.4	0.861926	3404.14
420	24654.9	0.862045	3401.26
422.5	24656.6	0.862533	3389.46
425	24649.1	0.862474	3389.89
427.5	24660.9	0.862213	3397.96
430	24665.5	0.862083	3401.79
432.5	24686.4	0.861471	3419.79
435	24694.4	0.861113	3429.73
437.5	24679.3	0.861807	3410.49
440	24692.8	0.861278	3425.42
442.5	24687	0.861682	3414.65
445	24682.4	0.861707	3413.41
447.5	24704.2	0.861481	3422
450	24677.9	0.86048	3443.05
452.5	24712.1	0.864028	3360.16
455	24779.7	0.852978	3643.15
457.5	24655.5	0.870019	3204.75
460	24705.2	0.856223	3552.04
462.5	24727.4	0.862431	3401.72
465	24848.1	0.855759	3584.12
467.5	24782.5	0.858916	3496.42
470	24726.4	0.860899	3439.46
472.5	24745.4	0.860124	3461.28
475	24754.6	0.860036	3464.76
477.5	24770.5	0.859265	3486.07
480	24740.5	0.860591	3449.04
482.5	24750.9	0.860108	3462.46
485	24766.2	0.859721	3474.19
487.5	24759.4	0.859977	3466.89
490	24770.9	0.859647	3476.67
492.5	24778.8	0.85941	3483.64
495	24775.8	0.859561	3479.48
497.5	24805.3	0.85859	3507.72
500	24776.5	0.859651	3477.37
502.5	24789	0.859267	3488.62
505	24801.6	0.858858	3500.56
507.5	24790.4	0.859259	3489.02
510	24798.1	0.859158	3492.62
512.5	24804	0.858826	3501.69
515	24810.1	0.858762	3504.13
517.5	24817.6	0.858559	3510.21
520	24845.1	0.857675	3536.08
522.5	24832.9	0.858109	3523.58
525	24825.9	0.858387	3515.67
527.5	24823.2	0.858405	3514.84
530	24868.4	0.856998	3556.23
532.5	24843	0.857875	3530.82
535	24842.1	0.85808	3525.58
537.5	24864.7	0.857274	3548.82
540	24864.8	0.85736	3546.72
542.5	24869.4	0.857222	3550.81
545	24860.8	0.857574	3540.81
547.5	24890.1	0.856579	3569.76
550	24864.5	0.857566	3541.55
552.5	24874	0.857294	3549.68
555	24854.4	0.858098	3526.9
557.5	24883.6	0.857765	3539.32
560	24885.8	0.857212	3553.39
562.5	24941.8	0.855154	3612.73
565	24933	0.855453	3603.99
567.5	24897	0.85674	3566.75
570	24908.9	0.856362	3577.87
572.5	24924.8	0.855878	3592.21
575	24900	0.856702	3568.11
577.5	24900.8	0.856711	3568.01
580	24930.6	0.855796	3595.08
582.5	24943.7	0.855375	3607.5
585	24960.6	0.854884	3622.18
587.5	24922.3	0.856271	3582.06
590	24972.4	0.854571	3631.71
592.5	24931.4	0.855944	3591.52
595	24932.7	0.856009	3590.08
597.5	24942.3	0.855739	3598.2
600	24948.4	0.855515	3604.67
602.5	24950.2	0.85559	3603.07
605	24971.7	0.854701	3628.37
607.5	24969.3	0.855369	3611.33
610	24934.4	0.855418	3605.07
612.5	25014.8	0.853649	3660.96
615	24990.4	0.854317	3640.68
617.5	24948.7	0.85594	3594.1
620	25038	0.852599	3690.61
622.5	25118.7	0.851097	3740.24
625	24897.8	0.857235	3554.55
627.5	25040.1	0.853082	3678.83
630	24998.1	0.85425	3643.48
632.5	25056.8	0.852458	3696.94
635	24999.9	0.854512	3637.18
637.5	25025.3	0.853777	3659.28
640	25023.6	0.853592	3663.66
642.5	25024	0.853321	3670.48
645	25010.8	0.854031	3650.8
647.5	25041.5	0.853477	3669.16
650	25070.1	0.852541	3696.82
652.5	25046.1	0.853043	3680.7
655	25071.5	0.852042	3709.54
657.5	25065.1	0.85247	3697.85
660	25038.1	0.8535	3668.08
662.5	25031.4	0.853832	3658.78
665	25028.8	0.854077	3652.27
667.5	25059.8	0.852929	3685.58
670	25091.1	0.852043	3712.41
672.5	25106.2	0.851392	3731
675	25099.7	0.85162	3724.29
677.5	25076	0.852454	3699.87
680	25072.9	0.852692	3693.42
682.5	25065.9	0.852938	3686.24
685	25086.8	0.852216	3707.42
687.5	25109.5	0.851626	3725.61
690	25088.9	0.852143	3709.57
692.5	25106.4	0.851692	3723.48
695	25139	0.85008	3768.85
697.5	25234.9	0.847856	3839.35
700	25086	0.852797	3692.72
702.5	25162.6	0.849893	3777.07
705	25110.9	0.851898	3718.98
707.5	25083.3	0.852636	3696.37
710	25151	0.850542	3759.02
712.5	25134.8	0.851041	3744.05
715	25136	0.850934	3746.91
717.5	25162.6	0.850048	3773.19
720	25154.3	0.850588	3758.35
722.5	25167.3	0.85038	3765.53
725	25169.4	0.850272	3768.55
727.5	25188.7	0.849343	3794.85
730	25149	0.850635	3756.38
732.5	25178	0.849764	3782.63
735	25166	0.850497	3762.4
737.5	25176.7	0.85014	3772.98
740	25213.2	0.848662	3815.73
742.5	25192.4	0.849483	3791.88
745	25189.1	0.849679	3786.46
747.5	25168.4	0.850287	3768.03
750	25206.6	0.849268	3799.44
752.5	25164	0.85073	3756.23
755	25174.6	0.850325	3768.01
757.5	25195.9	0.849682	3787.39
760	25218.1	0.848969	3808.72
762.5	25202.1	0.849613	3790.08
765	25213.1	0.849241	3801.09
767.5	25216.4	0.849223	3802.05
770	25213.3	0.849306	3799.5
772.5	25207.4	0.849511	3793.44
775	25209.8	0.849387	3796.92
777.5	25208.6	0.849448	3795.22
780	25253	0.848022	3837.91
782.5	25247.9	0.848212	3832.33
785	25264.1	0.847789	3845.47
787.5	25245.1	0.848489	3824.91
790	25247.1	0.848485	3825.31
792.5	25253.8	0.848288	3831.31
795	25273	0.847738	3848.11
797.5	25270.5	0.847772	3846.87
800	25302.6	0.846827	3875.68
802.5	25279.8	0.847502	3855.13
805	25305.8	0.846659	3880.41
807.5	25279.9	0.84757	3853.42
810	25278.5	0.847604	3852.33
812.5	25286.5	0.847452	3857.4
815	25291	0.847368	3860.22
817.5	25279.9	0.847864	3845.97
820	25329.1	0.846336	3892.16
822.5	25313.4	0.846827	3877.34
825	25280.8	0.847759	3848.78
827.5	25327.3	0.845934	3902.08
830	25318.2	0.846085	3896.86

Scattering (Csca), Extinction (Cext) and Backscattering (Cback) Cross Sections:
WL(nm)	Csca(um^2)	Cext(um^2)	Cback(um^2)
390	245.874	245.874	152.366
392.5	246.007	246.007	171.201
395	246.214	246.214	177.547
397.5	246.292	246.292	171.305
400	245.914	245.914	139.924
402.5	245.913	245.913	136.494
405	246.248	246.248	172.873
407.5	246.212	246.212	157.022
410	246.255	246.255	157.473
412.5	246.294	246.294	166.887
415	246.549	246.549	195.393
417.5	246.544	246.544	177.501
420	246.549	246.549	164.694
422.5	246.566	246.566	175.67
425	246.491	246.491	156.178
427.5	246.609	246.609	154.854
430	246.655	246.655	165.904
432.5	246.864	246.864	173.069
435	246.944	246.944	174.256
437.5	246.793	246.793	159.463
440	246.928	246.928	156.594
442.5	246.87	246.87	162.851
445	246.824	246.824	152.807
447.5	247.042	247.042	156.924
450	246.779	246.779	166.451
452.5	247.121	247.121	150.424
455	247.797	247.797	212.473
457.5	246.555	246.555	76.8225
460	247.052	247.052	248.131
462.5	247.274	247.274	128.756
465	248.481	248.481	200.447
467.5	247.825	247.825	89.31
470	247.264	247.264	110.732
472.5	247.454	247.454	179.887
475	247.546	247.546	99.4394
477.5	247.705	247.705	273.202
480	247.405	247.405	108.516
482.5	247.509	247.509	191.271
485	247.662	247.662	146.339
487.5	247.594	247.594	171.763
490	247.709	247.709	160.364
492.5	247.788	247.788	165.794
495	247.758	247.758	153.331
497.5	248.053	248.053	201.201
500	247.765	247.765	155.503
502.5	247.89	247.89	149.553
505	248.016	248.016	191.767
507.5	247.904	247.904	146.935
510	247.981	247.981	158.672
512.5	248.04	248.04	161.982
515	248.101	248.101	155.774
517.5	248.176	248.176	164.824
520	248.451	248.451	186.198
522.5	248.329	248.329	164.204
525	248.259	248.259	152.46
527.5	248.232	248.232	158.655
530	248.684	248.684	176.076
532.5	248.43	248.43	161.639
535	248.421	248.421	165.669
537.5	248.647	248.647	165.701
540	248.648	248.648	180.376
542.5	248.694	248.694	150.323
545	248.608	248.608	171.161
547.5	248.901	248.901	191.107
550	248.645	248.645	156.175
552.5	248.74	248.74	169.005
555	248.544	248.544	137.677
557.5	248.836	248.836	158.42
560	248.858	248.858	152.649
562.5	249.418	249.418	215.777
565	249.33	249.33	189.877
567.5	248.97	248.97	160.438
570	249.089	249.089	171.123
572.5	249.248	249.248	159.977
575	249	249	132.101
577.5	249.008	249.008	147.791
580	249.306	249.306	163.763
582.5	249.437	249.437	166.651
585	249.606	249.606	187.408
587.5	249.223	249.223	168.632
590	249.724	249.724	180.071
592.5	249.314	249.314	159.251
595	249.327	249.327	150.338
597.5	249.423	249.423	161.874
600	249.484	249.484	157.3
602.5	249.502	249.502	158.596
605	249.717	249.717	168.254
607.5	249.693	249.693	160.779
610	249.344	249.344	162.672
612.5	250.148	250.148	174.391
615	249.904	249.904	170.264
617.5	249.487	249.487	147.715
620	250.38	250.38	181.885
622.5	251.187	251.187	272.334
625	248.978	248.978	148.255
627.5	250.401	250.401	179.081
630	249.981	249.981	163.577
632.5	250.568	250.568	254.205
635	249.999	249.999	157.538
637.5	250.253	250.253	159.408
640	250.236	250.236	160.016
642.5	250.24	250.24	149.105
645	250.108	250.108	170.247
647.5	250.415	250.415	152.758
650	250.701	250.701	185.468
652.5	250.461	250.461	161.889
655	250.715	250.715	175.99
657.5	250.651	250.651	175.974
660	250.381	250.381	154.719
662.5	250.314	250.314	150.51
665	250.288	250.288	154.266
667.5	250.598	250.598	162.271
670	250.911	250.911	179.194
672.5	251.062	251.062	180.673
675	250.997	250.997	169.106
677.5	250.76	250.76	157.028
680	250.729	250.729	149.574
682.5	250.659	250.659	149.699
685	250.868	250.868	160.658
687.5	251.095	251.095	191.687
690	250.889	250.889	172.605
692.5	251.064	251.064	174.256
695	251.39	251.39	166.946
697.5	252.349	252.349	181.735
700	250.86	250.86	160.175
702.5	251.626	251.626	221.14
705	251.109	251.109	138.915
707.5	250.833	250.833	118.2
710	251.51	251.51	162.607
712.5	251.348	251.348	154.99
715	251.36	251.36	166.772
717.5	251.626	251.626	181.28
720	251.543	251.543	189.844
722.5	251.673	251.673	165.24
725	251.694	251.694	166.867
727.5	251.887	251.887	197.992
730	251.49	251.49	159.008
732.5	251.78	251.78	167.572
735	251.66	251.66	157.154
737.5	251.767	251.767	170.854
740	252.132	252.132	183.21
742.5	251.924	251.924	168.855
745	251.891	251.891	163.996
747.5	251.684	251.684	139.372
750	252.066	252.066	178.322
752.5	251.64	251.64	142.438
755	251.746	251.746	150.692
757.5	251.959	251.959	162.183
760	252.181	252.181	167.923
762.5	252.021	252.021	149.515
765	252.131	252.131	163.455
767.5	252.164	252.164	165.904
770	252.133	252.133	184.565
772.5	252.074	252.074	165.004
775	252.098	252.098	158.11
777.5	252.086	252.086	159.609
780	252.53	252.53	164.78
782.5	252.479	252.479	162.587
785	252.641	252.641	177.87
787.5	252.451	252.451	159.211
790	252.471	252.471	159.041
792.5	252.538	252.538	160.441
795	252.73	252.73	166.844
797.5	252.705	252.705	168.652
800	253.026	253.026	179.984
802.5	252.798	252.798	169.393
805	253.058	253.058	185.38
807.5	252.799	252.799	154.795
810	252.785	252.785	153.196
812.5	252.865	252.865	168.6
815	252.91	252.91	180.268
817.5	252.799	252.799	159.579
820	253.291	253.291	174.166
822.5	253.134	253.134	185.684
825	252.808	252.808	141.196
827.5	253.273	253.273	180.79
830	253.182	253.182	179.318

Forward and Backward Scattering percentages:
WL(nm)	Forward %	Backward %
390	96.3809	3.61912
392.5	96.3544	3.64556
395	96.3328	3.66723
397.5	96.2807	3.71935
400	96.3849	3.61511
402.5	96.3753	3.62472
405	96.3463	3.65368
407.5	96.3603	3.63972
410	96.3497	3.65027
412.5	96.3406	3.65943
415	96.3176	3.68238
417.5	96.2777	3.72228
420	96.3054	3.69462
422.5	96.3279	3.6721
425	96.3226	3.67741
427.5	96.3202	3.6798
430	96.3022	3.6978
432.5	96.2948	3.70517
435	96.2723	3.72769
437.5	96.3026	3.69739
440	96.2798	3.72019
442.5	96.2979	3.70208
445	96.295	3.70504
447.5	96.2837	3.71628
450	96.2691	3.73092
452.5	96.3315	3.66851
455	95.9936	4.00637
457.5	96.6332	3.36678
460	96.2051	3.79489
462.5	96.2223	3.7777
465	96.1381	3.86188
467.5	96.177	3.82304
470	96.2861	3.71393
472.5	96.2607	3.73933
475	96.2395	3.76053
477.5	96.2138	3.78623
480	96.2635	3.73655
482.5	96.2427	3.75734
485	96.2355	3.76446
487.5	96.2326	3.76744
490	96.242	3.75796
492.5	96.223	3.77697
495	96.2307	3.76929
497.5	96.1794	3.82063
500	96.2313	3.76869
502.5	96.2197	3.78028
505	96.2012	3.79882
507.5	96.2158	3.78422
510	96.1943	3.80569
512.5	96.1985	3.80151
515	96.1956	3.80442
517.5	96.195	3.80499
520	96.171	3.82901
522.5	96.1664	3.83357
525	96.1868	3.81316
527.5	96.1758	3.82422
530	96.1457	3.85429
532.5	96.1603	3.83973
535	96.1779	3.82207
537.5	96.1293	3.87072
540	96.1553	3.84474
542.5	96.1513	3.84873
545	96.1584	3.84157
547.5	96.1268	3.87317
550	96.1465	3.85354
552.5	96.1386	3.86138
555	96.188	3.81197
557.5	96.1526	3.84742
560	96.1501	3.84989
562.5	96.0648	3.93518
565	96.1037	3.89634
567.5	96.1355	3.86446
570	96.1083	3.89172
572.5	96.091	3.909
575	96.1334	3.86656
577.5	96.1261	3.87389
580	96.092	3.90804
582.5	96.0779	3.92212
585	96.0696	3.93036
587.5	96.1085	3.89147
590	96.0472	3.95275
592.5	96.1075	3.89255
595	96.1095	3.89053
597.5	96.0964	3.90359
600	96.0743	3.92572
602.5	96.0822	3.91784
605	96.0576	3.94239
607.5	96.0932	3.90679
610	96.0759	3.92408
612.5	96.0117	3.9883
615	96.0293	3.9707
617.5	96.1326	3.86735
620	95.9384	4.0616
622.5	95.9107	4.08927
625	96.1746	3.82541
627.5	96.0295	3.97054
630	96.031	3.96902
632.5	95.9755	4.02447
635	96.0598	3.94022
637.5	96.0246	3.97544
640	96.0349	3.96509
642.5	96.015	3.98501
645	96.0397	3.9603
647.5	96.0172	3.98283
650	95.9848	4.01521
652.5	96.0017	3.99827
655	95.9606	4.03941
657.5	95.99	4.01003
660	96.0072	3.99283
662.5	96.0302	3.96981
665	96.0497	3.95026
667.5	95.9793	4.0207
670	95.9618	4.03819
672.5	95.9672	4.03283
675	95.9785	4.02146
677.5	95.9848	4.01523
680	95.9896	4.01044
682.5	96.0047	3.99532
685	95.9812	4.01877
687.5	95.9485	4.05147
690	95.9917	4.00832
692.5	95.9386	4.06136
695	95.8541	4.14588
697.5	95.7802	4.21978
700	95.9781	4.02188
702.5	95.9103	4.08974
705	95.9809	4.01911
707.5	95.9974	4.00256
710	95.9254	4.07458
712.5	95.9407	4.05928
715	95.9291	4.07093
717.5	95.9064	4.09365
720	95.9165	4.08349
722.5	95.9123	4.08771
725	95.9033	4.09666
727.5	95.8745	4.12554
730	95.9093	4.09072
732.5	95.8918	4.10819
735	95.9292	4.07081
737.5	95.8922	4.10782
740	95.8244	4.17564
742.5	95.8794	4.12055
745	95.8807	4.11926
747.5	95.9261	4.07392
750	95.8836	4.11644
752.5	95.9346	4.06537
755	95.9266	4.07339
757.5	95.8824	4.11756
760	95.8579	4.1421
762.5	95.8884	4.11159
765	95.8695	4.13046
767.5	95.8782	4.12183
770	95.8676	4.13243
772.5	95.8917	4.10834
775	95.8618	4.13818
777.5	95.8902	4.10979
780	95.8095	4.19047
782.5	95.8507	4.14927
785	95.8031	4.19692
787.5	95.8552	4.14483
790	95.8612	4.13881
792.5	95.8482	4.15181
795	95.8341	4.16589
797.5	95.8242	4.17583
800	95.7849	4.21505
802.5	95.8297	4.17034
805	95.7909	4.20905
807.5	95.8238	4.17618
810	95.818	4.18198
812.5	95.8247	4.17534
815	95.7973	4.20268
817.5	95.825	4.17496
820	95.7675	4.23249
822.5	95.7809	4.21909
825	95.833	4.16705
827.5	95.7692	4.23075
830	95.7681	4.23189

