Simulation parameters:

Distribution: Poly Disperse - Log Normal 
Number of discrete sphere sizes: 101
Mean diameter of spheres: 14.5 um
Std. deviation: 0.25 um
Total Concentration (Spheres in a volume of 1mm^3): 1e+08

Wavelength Range: 390nm to 830nm in 2.5nm steps

Sphere and Medium Data:
Dia.(um)	Num. Den.(in a vol. of 1mm^3)	Ref. Index of sphere (real | imag)
5.19319	2038	1.333	0	1
5.49848	4794	1.333	0	1
5.80378	10260	1.333	0	1
6.10907	20227	1.333	0	1
6.41436	37102	1.333	0	1
6.71965	63857	1.333	0	1
7.02494	103874	1.333	0	1
7.33023	160679	1.333	0	1
7.63553	237611	1.333	0	1
7.94082	337453	1.333	0	1
8.24611	462092	1.333	0	1
8.5514	612244	1.333	0	1
8.85669	787277	1.333	0	1
9.16198	985164	1.333	0	1
9.46728	1.20256e+06	1.333	0	1
9.77257	1.43496e+06	1.333	0	1
10.0779	1.677e+06	1.333	0	1
10.3832	1.92274e+06	1.333	0	1
10.6884	2.16604e+06	1.333	0	1
10.9937	2.40085e+06	1.333	0	1
11.299	2.6215e+06	1.333	0	1
11.6043	2.823e+06	1.333	0	1
11.9096	3.00116e+06	1.333	0	1
12.2149	3.15271e+06	1.333	0	1
12.5202	3.27539e+06	1.333	0	1
12.8255	3.3679e+06	1.333	0	1
13.1308	3.42989e+06	1.333	0	1
13.4361	3.46182e+06	1.333	0	1
13.7414	3.46489e+06	1.333	0	1
14.0467	3.44092e+06	1.333	0	1
14.3519	3.39216e+06	1.333	0	1
14.6572	3.32121e+06	1.333	0	1
14.9625	3.23089e+06	1.333	0	1
15.2678	3.12411e+06	1.333	0	1
15.5731	3.00377e+06	1.333	0	1
15.8784	2.87273e+06	1.333	0	1
16.1837	2.73367e+06	1.333	0	1
16.489	2.58911e+06	1.333	0	1
16.7943	2.44133e+06	1.333	0	1
17.0996	2.29239e+06	1.333	0	1
17.4049	2.14406e+06	1.333	0	1
17.7101	1.99789e+06	1.333	0	1
18.0154	1.85517e+06	1.333	0	1
18.3207	1.71694e+06	1.333	0	1
18.626	1.58406e+06	1.333	0	1
18.9313	1.45715e+06	1.333	0	1
19.2366	1.33666e+06	1.333	0	1
19.5419	1.22291e+06	1.333	0	1
19.8472	1.11605e+06	1.333	0	1
20.1525	1.01613e+06	1.333	0	1
20.4578	923083	1.333	0	1
20.7631	836788	1.333	0	1
21.0684	757044	1.333	0	1
21.3736	683602	1.333	0	1
21.6789	616179	1.333	0	1
21.9842	554463	1.333	0	1
22.2895	498126	1.333	0	1
22.5948	446832	1.333	0	1
22.9001	400241	1.333	0	1
23.2054	358020	1.333	0	1
23.5107	319837	1.333	0	1
23.816	285377	1.333	0	1
24.1213	254335	1.333	0	1
24.4266	226420	1.333	0	1
24.7319	201360	1.333	0	1
25.0371	178897	1.333	0	1
25.3424	158792	1.333	0	1
25.6477	140822	1.333	0	1
25.953	124782	1.333	0	1
26.2583	110482	1.333	0	1
26.5636	97749	1.333	0	1
26.8689	86422	1.333	0	1
27.1742	76357	1.333	0	1
27.4795	67422	1.333	0	1
27.7848	59497	1.333	0	1
28.0901	52475	1.333	0	1
28.3954	46258	1.333	0	1
28.7006	40757	1.333	0	1
29.0059	35893	1.333	0	1
29.3112	31597	1.333	0	1
29.6165	27803	1.333	0	1
29.9218	24456	1.333	0	1
30.2271	21504	1.333	0	1
30.5324	18902	1.333	0	1
30.8377	16610	1.333	0	1
31.143	14591	1.333	0	1
31.4483	12815	1.333	0	1
31.7536	11251	1.333	0	1
32.0589	9877	1.333	0	1
32.3641	8668	1.333	0	1
32.6694	7606	1.333	0	1
32.9747	6673	1.333	0	1
33.28	5854	1.333	0	1
33.5853	5134	1.333	0	1
33.8906	4502	1.333	0	1
34.1959	3948	1.333	0	1
34.5012	3461	1.333	0	1
34.8065	3034	1.333	0	1
35.1118	2660	1.333	0	1
35.4171	2332	1.333	0	1
35.7224	2044	1.333	0	1


Output:


Scattering Coefficient (us), g and Reduced Scattering Coefficient (us'):
WL(nm)	us(mm^-1)	g	us'(mm^-1)
390	38811.2	0.867817	5130.2
392.5	38971.1	0.865298	5249.47
395	38817.7	0.868141	5118.45
397.5	38869	0.867089	5166.1
400	38868.8	0.867188	5162.23
402.5	38867.7	0.867246	5159.85
405	38884	0.866907	5175.17
407.5	38888.6	0.866962	5173.68
410	38898.1	0.866598	5189.1
412.5	38901.4	0.866726	5184.55
415	38912.1	0.866466	5196.1
417.5	38913.3	0.866495	5195.13
420	38927.7	0.866218	5207.83
422.5	38962.7	0.865501	5240.46
425	38963.3	0.865503	5240.46
427.5	38956.6	0.865723	5230.97
430	38941.8	0.86614	5212.75
432.5	38950.8	0.866	5219.39
435	38984.7	0.86524	5253.58
437.5	38959.5	0.865725	5231.27
440	38941.7	0.866228	5209.32
442.5	38958.5	0.865965	5221.82
445	38990.7	0.865302	5251.95
447.5	38989.6	0.865305	5251.71
450	38990.9	0.865384	5248.8
452.5	39007.7	0.865089	5262.57
455	39025.7	0.864654	5281.96
457.5	39010.9	0.865135	5261.22
460	39003.3	0.865246	5255.84
462.5	39017.7	0.865476	5248.82
465	39041	0.864518	5289.36
467.5	39057.1	0.864256	5301.78
470	39065.8	0.863839	5319.24
472.5	38984.9	0.865906	5227.63
475	39075.4	0.863977	5315.14
477.5	39069.7	0.864135	5308.18
480	39062.9	0.864338	5299.35
482.5	39089.6	0.863784	5324.63
485	39063.7	0.864438	5295.54
487.5	39089.4	0.863898	5320.14
490	39083.2	0.864055	5313.16
492.5	39056.2	0.86468	5285.08
495	39115.1	0.863352	5344.99
497.5	39124.4	0.863288	5348.78
500	39112.5	0.86344	5341.2
502.5	39196.4	0.86156	5426.36
505	39103.9	0.863822	5325.09
507.5	39095.1	0.864041	5315.33
510	39138.5	0.863223	5353.25
512.5	39144.7	0.86307	5360.08
515	39158.5	0.862815	5371.97
517.5	39167.6	0.86253	5384.36
520	39147.9	0.86306	5360.92
522.5	39152.2	0.863174	5357.05
525	39153.8	0.862837	5370.44
527.5	39161.6	0.863386	5350.04
530	39157.9	0.862713	5375.88
532.5	39182.5	0.86281	5375.45
535	39194.2	0.86238	5393.89
537.5	39195.4	0.862442	5391.63
540	39215.8	0.86207	5409.05
542.5	39225.7	0.86183	5419.83
545	39230.6	0.861735	5424.23
547.5	39213.8	0.862178	5404.52
550	39232.1	0.861775	5422.84
552.5	39261.3	0.861279	5446.36
555	39256	0.861249	5446.82
557.5	39234.8	0.861919	5417.59
560	39244.8	0.861752	5425.52
562.5	39232	0.861681	5426.51
565	39284.4	0.861826	5428.07
567.5	39231.4	0.860335	5479.27
570	39271.2	0.86291	5383.69
572.5	39406.5	0.858991	5556.68
575	39108.1	0.861027	5434.98
577.5	39392.9	0.864666	5331.18
580	39276.1	0.856223	5647.01
582.5	39207.2	0.864947	5295.07
585	39264.2	0.861095	5454.01
587.5	39226.6	0.861827	5420.05
590	39328.5	0.859957	5507.68
592.5	39279	0.861547	5438.3
595	39296.4	0.861096	5458.45
597.5	39322.3	0.860643	5479.85
600	39319.4	0.86068	5477.99
602.5	39374.9	0.859441	5534.5
605	39338.7	0.860469	5488.97
607.5	39349	0.860095	5505.14
610	39381.5	0.859484	5533.75
612.5	39386.8	0.859426	5536.75
615	39393.7	0.859296	5542.86
617.5	39392.9	0.859351	5540.56
620	39410.1	0.859021	5556
622.5	39402.9	0.859249	5545.99
625	39385.5	0.859639	5528.2
627.5	39391.1	0.859534	5533.1
630	39387.4	0.859678	5526.9
632.5	39405.6	0.859356	5542.17
635	39417.1	0.859103	5553.75
637.5	39428.5	0.85885	5565.35
640	39429.9	0.858886	5564.13
642.5	39416.9	0.859096	5553.99
645	39440	0.858742	5571.2
647.5	39433	0.858877	5564.89
650	39442.3	0.858759	5570.87
652.5	39454.8	0.858559	5580.51
655	39445.4	0.858787	5570.21
657.5	39502.5	0.85754	5627.52
660	39521.6	0.85716	5645.27
662.5	39465.9	0.858412	5587.89
665	39479.1	0.858067	5603.38
667.5	39444.4	0.859194	5554.01
670	39490.2	0.858077	5604.57
672.5	39516.9	0.857627	5626.12
675	39526.7	0.85727	5641.64
677.5	39505	0.857801	5617.56
680	39483.9	0.858293	5595.15
682.5	39519.7	0.857583	5628.28
685	39492.1	0.858215	5599.37
687.5	39527.6	0.857478	5633.55
690	39563	0.856761	5666.99
692.5	39585.1	0.856277	5689.27
695	39554.4	0.856968	5657.54
697.5	39541	0.857361	5640.08
700	39531.9	0.857832	5620.19
702.5	39468.5	0.85936	5550.83
705	39499.8	0.858265	5598.49
707.5	39597.2	0.856288	5690.59
710	39552.5	0.857187	5648.62
712.5	39623.4	0.855734	5716.32
715	39598.8	0.856357	5688.08
717.5	39569.9	0.856992	5658.83
720	39590.8	0.856589	5677.76
722.5	39611.6	0.856169	5697.36
725	39585.7	0.856702	5672.56
727.5	39615	0.856271	5693.83
730	39608	0.856327	5690.59
732.5	39635.4	0.85579	5715.81
735	39625.4	0.855976	5706.99
737.5	39664.3	0.855281	5740.17
740	39678.2	0.854881	5758.07
742.5	39661.3	0.855368	5736.29
745	39632.1	0.856039	5705.48
747.5	39637.3	0.856005	5707.58
750	39662.7	0.855456	5732.98
752.5	39660.2	0.855494	5731.12
755	39643.1	0.856028	5707.47
757.5	39680.2	0.855089	5750.1
760	39691.9	0.855051	5753.3
762.5	39666.3	0.855468	5733.05
765	39666.2	0.855555	5729.6
767.5	39726.3	0.854424	5783.2
770	39629.4	0.856351	5692.72
772.5	39831.7	0.852076	5892.07
775	39663	0.855706	5723.13
777.5	39760.9	0.853623	5820.08
780	39804.7	0.852897	5855.4
782.5	39637.2	0.85597	5708.97
785	39961.5	0.850349	5980.28
787.5	39616.7	0.856264	5694.35
790	39722.6	0.855024	5758.84
792.5	39835.1	0.852142	5889.96
795	39725.6	0.854623	5775.19
797.5	39835.1	0.852458	5877.36
800	39766.5	0.854031	5804.68
802.5	39772.8	0.853997	5806.96
805	39795.3	0.853495	5830.2
807.5	39761.2	0.85397	5806.34
810	39790.9	0.853141	5843.65
812.5	39784	0.853447	5830.46
815	39821.8	0.853102	5849.75
817.5	39783.8	0.854117	5803.8
820	39778.7	0.854137	5802.22
822.5	39800.5	0.853471	5831.93
825	39809.6	0.853134	5846.66
827.5	39860.6	0.852049	5897.4
830	39800.6	0.853498	5830.87

Scattering (Csca), Extinction (Cext) and Backscattering (Cback) Cross Sections:
WL(nm)	Csca(um^2)	Cext(um^2)	Cback(um^2)
390	388.112	388.112	265.046
392.5	389.711	389.711	589.423
395	388.177	388.177	205.751
397.5	388.69	388.69	217.005
400	388.688	388.688	117.883
402.5	388.677	388.677	200.851
405	388.84	388.84	242.04
407.5	388.886	388.886	256.405
410	388.981	388.981	252.485
412.5	389.014	389.014	254.076
415	389.121	389.121	263.101
417.5	389.133	389.133	270.529
420	389.277	389.277	241.665
422.5	389.627	389.627	255.726
425	389.633	389.633	296.522
427.5	389.566	389.566	284.145
430	389.418	389.418	243.157
432.5	389.508	389.508	252.523
435	389.847	389.847	285.424
437.5	389.595	389.595	250.176
440	389.417	389.417	214.124
442.5	389.585	389.585	261.661
445	389.907	389.907	250.761
447.5	389.896	389.896	279.47
450	389.909	389.909	243.458
452.5	390.077	390.077	275.616
455	390.257	390.257	246.706
457.5	390.109	390.109	256.105
460	390.033	390.033	264.691
462.5	390.177	390.177	232.932
465	390.41	390.41	268.218
467.5	390.571	390.571	262.312
470	390.658	390.658	198.423
472.5	389.849	389.849	282.662
475	390.754	390.754	301.049
477.5	390.697	390.697	246.346
480	390.629	390.629	243.8
482.5	390.896	390.896	276.482
485	390.637	390.637	269.858
487.5	390.894	390.894	259.844
490	390.832	390.832	264.296
492.5	390.562	390.562	216.391
495	391.151	391.151	292.747
497.5	391.244	391.244	265.805
500	391.125	391.125	277.622
502.5	391.964	391.964	290.095
505	391.039	391.039	258.519
507.5	390.951	390.951	216.997
510	391.385	391.385	242.801
512.5	391.447	391.447	260.276
515	391.585	391.585	269.962
517.5	391.676	391.676	266.228
520	391.479	391.479	259.858
522.5	391.522	391.522	251.411
525	391.538	391.538	229.517
527.5	391.616	391.616	237.184
530	391.579	391.579	240.966
532.5	391.825	391.825	239.388
535	391.942	391.942	239.527
537.5	391.954	391.954	279.513
540	392.158	392.158	279.699
542.5	392.257	392.257	255.871
545	392.306	392.306	268.257
547.5	392.138	392.138	250.874
550	392.321	392.321	249.674
552.5	392.613	392.613	273.912
555	392.56	392.56	261.04
557.5	392.348	392.348	245.522
560	392.448	392.448	232.23
562.5	392.32	392.32	247.312
565	392.844	392.844	251.972
567.5	392.314	392.314	258.618
570	392.712	392.712	257.306
572.5	394.065	394.065	223.175
575	391.081	391.081	377.915
577.5	393.929	393.929	143.124
580	392.761	392.761	394.477
582.5	392.072	392.072	197.595
585	392.642	392.642	251.024
587.5	392.266	392.266	198.61
590	393.285	393.285	245.642
592.5	392.79	392.79	162.544
595	392.964	392.964	246.228
597.5	393.223	393.223	330.405
600	393.193	393.193	108.766
602.5	393.749	393.749	421.574
605	393.387	393.387	161.316
607.5	393.49	393.49	246.602
610	393.815	393.815	281.014
612.5	393.868	393.868	239.811
615	393.937	393.937	288.227
617.5	393.929	393.929	253.822
620	394.101	394.101	274.015
622.5	394.029	394.029	271.467
625	393.855	393.855	260.724
627.5	393.911	393.911	237.424
630	393.874	393.874	239.527
632.5	394.056	394.056	266.919
635	394.171	394.171	223.487
637.5	394.285	394.285	301.466
640	394.299	394.299	256.431
642.5	394.169	394.169	242.37
645	394.4	394.4	268.693
647.5	394.33	394.33	274.168
650	394.423	394.423	249.23
652.5	394.548	394.548	262.036
655	394.454	394.454	239.93
657.5	395.025	395.025	255.56
660	395.216	395.216	314.732
662.5	394.659	394.659	251.868
665	394.791	394.791	253.566
667.5	394.444	394.444	229.42
670	394.902	394.902	248.362
672.5	395.169	395.169	293.275
675	395.267	395.267	259.154
677.5	395.05	395.05	244.254
680	394.839	394.839	246.319
682.5	395.197	395.197	261.689
685	394.921	394.921	228.312
687.5	395.276	395.276	245.052
690	395.63	395.63	290.143
692.5	395.851	395.851	306.592
695	395.544	395.544	248.567
697.5	395.41	395.41	253.545
700	395.319	395.319	235.236
702.5	394.685	394.685	239.059
705	394.998	394.998	226.656
707.5	395.972	395.972	283.104
710	395.525	395.525	260.765
712.5	396.234	396.234	290.094
715	395.988	395.988	255.089
717.5	395.699	395.699	254.35
720	395.908	395.908	256.119
722.5	396.116	396.116	272.174
725	395.857	395.857	210.013
727.5	396.15	396.15	257.769
730	396.08	396.08	256.966
732.5	396.354	396.354	255.862
735	396.254	396.254	256.403
737.5	396.643	396.643	296.742
740	396.782	396.782	277.384
742.5	396.613	396.613	289.551
745	396.321	396.321	246.568
747.5	396.373	396.373	246.218
750	396.626	396.626	247.01
752.5	396.602	396.602	258.774
755	396.431	396.431	236.587
757.5	396.802	396.802	272.992
760	396.919	396.919	264.241
762.5	396.663	396.663	251.24
765	396.662	396.662	245.733
767.5	397.263	397.263	266.68
770	396.294	396.294	233.213
772.5	398.317	398.317	339.938
775	396.63	396.63	241.968
777.5	397.609	397.609	279.698
780	398.047	398.047	297.363
782.5	396.372	396.372	228.003
785	399.615	399.615	426.678
787.5	396.167	396.167	219.95
790	397.226	397.226	221.056
792.5	398.351	398.351	278.662
795	397.256	397.256	234.76
797.5	398.351	398.351	404.133
800	397.665	397.665	242.11
802.5	397.728	397.728	282.079
805	397.953	397.953	254.842
807.5	397.612	397.612	258.277
810	397.909	397.909	234.48
812.5	397.84	397.84	279.283
815	398.218	398.218	284.487
817.5	397.838	397.838	262.415
820	397.787	397.787	234.252
822.5	398.005	398.005	251.978
825	398.096	398.096	251.741
827.5	398.606	398.606	259.671
830	398.006	398.006	246.012

Forward and Backward Scattering percentages:
WL(nm)	Forward %	Backward %
390	96.4999	3.50011
392.5	96.3797	3.62027
395	96.519	3.48096
397.5	96.4814	3.51857
400	96.4818	3.51818
402.5	96.4826	3.51742
405	96.477	3.52297
407.5	96.4811	3.51886
410	96.4577	3.54228
412.5	96.4715	3.52855
415	96.4597	3.5403
417.5	96.4564	3.54357
420	96.4442	3.55583
422.5	96.4355	3.56446
425	96.4267	3.57326
427.5	96.4293	3.57074
430	96.4524	3.54755
432.5	96.4379	3.56206
435	96.4164	3.58355
437.5	96.4266	3.57343
440	96.4546	3.54535
442.5	96.4448	3.55518
445	96.4278	3.57223
447.5	96.4139	3.58611
450	96.4254	3.57457
452.5	96.4098	3.59019
455	96.4001	3.59991
457.5	96.4147	3.58528
460	96.4071	3.59292
462.5	96.4194	3.5806
465	96.3912	3.60885
467.5	96.3859	3.61411
470	96.3421	3.65793
472.5	96.4334	3.56659
475	96.3673	3.63267
477.5	96.3788	3.6212
480	96.3849	3.61514
482.5	96.3569	3.64313
485	96.3911	3.60888
487.5	96.3685	3.63153
490	96.3744	3.62562
492.5	96.4035	3.59655
495	96.3547	3.64529
497.5	96.3455	3.65452
500	96.3365	3.66349
502.5	96.3054	3.69461
505	96.3775	3.62248
507.5	96.3753	3.62472
510	96.3546	3.64542
512.5	96.3423	3.65771
515	96.3326	3.66737
517.5	96.3179	3.68215
520	96.3451	3.6549
522.5	96.3328	3.66723
525	96.354	3.64599
527.5	96.3477	3.65229
530	96.3165	3.68345
532.5	96.3438	3.6562
535	96.3105	3.68952
537.5	96.3157	3.68433
540	96.3231	3.67693
542.5	96.3102	3.68978
545	96.2836	3.71636
547.5	96.3201	3.6799
550	96.3022	3.69783
552.5	96.2735	3.72654
555	96.284	3.716
557.5	96.3091	3.69087
560	96.3006	3.69937
562.5	96.2997	3.70029
565	96.3036	3.6964
567.5	96.2592	3.74079
570	96.2859	3.71409
572.5	96.3089	3.6911
575	96.1701	3.82985
577.5	96.3931	3.60689
580	96.2051	3.79489
582.5	96.345	3.65498
585	96.2945	3.70551
587.5	96.2631	3.73692
590	96.2567	3.74328
592.5	96.3045	3.6955
595	96.2713	3.72869
597.5	96.2522	3.74781
600	96.2684	3.73157
602.5	96.2227	3.77729
605	96.2585	3.74155
607.5	96.2406	3.7594
610	96.2231	3.77695
612.5	96.2151	3.78494
615	96.2154	3.78456
617.5	96.2142	3.7858
620	96.2029	3.79709
622.5	96.2115	3.78848
625	96.2215	3.77849
627.5	96.2265	3.77354
630	96.2286	3.77145
632.5	96.2214	3.77861
635	96.2144	3.78559
637.5	96.1933	3.80675
640	96.205	3.79501
642.5	96.2053	3.79466
645	96.1955	3.80454
647.5	96.208	3.79204
650	96.1976	3.80237
652.5	96.195	3.80499
655	96.1963	3.80374
657.5	96.1712	3.82881
660	96.1339	3.86609
662.5	96.1836	3.81637
665	96.1652	3.83481
667.5	96.2135	3.78649
670	96.1816	3.81839
672.5	96.1445	3.85548
675	96.1508	3.84924
677.5	96.1553	3.84474
680	96.1782	3.82177
682.5	96.1504	3.84959
685	96.1924	3.80755
687.5	96.1546	3.84544
690	96.1265	3.87349
692.5	96.1008	3.89917
695	96.1347	3.86532
697.5	96.1507	3.84931
700	96.188	3.81203
702.5	96.2518	3.74823
705	96.1845	3.81554
707.5	96.0868	3.91318
710	96.1328	3.86716
712.5	96.1154	3.88456
715	96.126	3.87404
717.5	96.1379	3.86211
720	96.1313	3.86874
722.5	96.1095	3.89048
725	96.1334	3.86656
727.5	96.1308	3.8692
730	96.1167	3.8833
732.5	96.0945	3.9055
735	96.1085	3.89146
737.5	96.0945	3.90549
740	96.0802	3.91976
742.5	96.0716	3.92842
745	96.1045	3.89552
747.5	96.1048	3.89518
750	96.0787	3.9213
752.5	96.091	3.90896
755	96.1061	3.89389
757.5	96.0694	3.93057
760	96.0654	3.93456
762.5	96.0964	3.90365
765	96.081	3.91897
767.5	96.0535	3.94649
770	96.1335	3.86653
772.5	95.9439	4.05609
775	96.0974	3.90262
777.5	95.9987	4.0013
780	96.0309	3.96909
782.5	96.084	3.91603
785	95.8611	4.13895
787.5	96.1538	3.84624
790	96.0531	3.94691
792.5	95.9965	4.00345
795	96.041	3.95899
797.5	95.9755	4.02447
800	96.0384	3.96161
802.5	96.0094	3.99056
805	96.0258	3.97424
807.5	96.0444	3.95559
810	96.0043	3.99568
812.5	96.0121	3.98793
815	96.0068	3.99318
817.5	96.0568	3.94324
820	96.0428	3.95721
822.5	96.0011	3.99891
825	96.0089	3.99108
827.5	95.9734	4.0266
830	96.0148	3.98516

